0.012681
0.030906
0.016954
0.031265
0.026963
0.031418
0.030893
0.026273
0.031871
0.022673
0.034489
0.032681
0.034850
0.023128
0.032322
0.025779
0.032901
0.031078
0.020475
0.030431
0.031191
0.033015
0.032802
0.033646
0.016329
0.022050
0.016852
0.029097
0.031157
0.032938
0.031720
0.031562
0.032219
0.032152
0.020136
0.031127
0.031427
0.021680
0.020677
0.031524
0.031943
0.032537
0.024131
0.029492
0.031212
0.031743
0.032352
0.031676
0.031543
0.032595
0.032657
0.025414
0.033198
0.032205
0.016669
0.015059
0.015132
0.014787
0.032493
0.024628
0.031381
0.033731
0.024418
0.032565
0.031071
0.032470
0.031948
0.032995
0.015698
0.015697
0.014712
0.016023
0.016646
0.015903
0.034144
0.018696
0.031151
0.031059
0.032190
0.031633
0.031454
0.031010
0.032007
0.033839
0.029022
0.031401
0.028877
0.031233
0.033019
0.015111
0.013514
0.032661
0.032812
0.021568
0.022671
0.032767
0.021377
0.031543
0.032970
0.031818
0.031987
0.031586
0.032135
0.032547
0.023448
0.031538
0.018853
0.031496
0.031937
0.031749
0.032778
0.033199
0.032668
0.028004
0.031957
0.032593
0.019472
0.035094
0.028397
0.016409
0.032281
0.032001
0.017042
0.016630
0.032502
0.032327
0.031364
0.018664
0.031104
0.021852
0.033154
0.031734
0.033947
0.033831
0.033356
0.017130
0.019929
0.032487
0.018998
0.032347
0.031278
0.019038
0.033110
0.030906
0.015610
0.020487
0.033307
0.030672
0.031927
0.030855
0.032333
0.025263
0.031001
0.030137
0.032652
0.031892
0.032639
0.027884
0.031770
0.032006
0.030327
0.026888
0.017816
0.017538
0.033193
0.018234
0.015122
0.032378
0.032049
0.030503
0.033407
0.023063
0.030820
0.031276
0.032621
0.031195
0.024112
0.030981
0.028058
0.019519
0.014985
0.015166
0.022856
0.031157
0.031059
0.022633
0.031916
0.031310
0.015971
0.026952
0.019483
0.029968
0.031848
0.031216
0.027470
0.027901
0.031474
0.031300
0.028586
0.033396
0.031780
0.027133
0.031736
0.031121
0.032858
0.033718
0.032283
0.022637
0.030924
0.031386
0.027088
0.031383
0.032140
0.032818
0.023631
0.032006
0.033118
0.033030
0.032401
0.023028
0.032336
0.032569
0.031859
0.035484
0.028311
0.035038
0.030640
0.031308
0.024378
0.032299
0.023126
0.031815
0.031627
0.031552
0.031524
0.027098
0.031931
0.031920
0.030731
0.031849
0.032630
0.032007
0.019128
0.031455
0.015617
0.015064
0.033107
0.031639
0.033334
0.031129
0.031237
0.031837
0.027604
0.031630
0.032722
0.032056
0.021766
0.032371
0.032234
0.032248
0.031465
0.019960
0.032185
0.027163
0.034511
0.031006
0.025280
0.029046
0.033247
0.032090
0.030246
0.031925
0.016300
0.017102
0.019114
0.033873
0.032679
0.033049
0.032878
0.033711
0.032592
0.033253
0.033462
0.021465
0.025142
0.031554
0.032144
0.033658
0.032930
0.015401
0.014785
0.015412
0.015192
0.016099
0.020027
0.031304
0.032697
0.028135
0.027943
0.025565
0.030758
0.030384
0.029258
0.031484
0.030443
0.034545
0.035622
0.033724
0.032863
0.028052
0.032533
0.022926
0.032576
0.031158
0.032389
0.020148
0.031169
0.033087
0.031286
0.027690
0.031744
0.033091
0.033984
0.031521
0.025679
0.034256
0.031625
0.032276
0.032284
0.031308
0.017656
0.020011
0.032729
0.015814
0.031514
0.022733
0.032516
0.031708
0.034894
0.032159
0.031369
0.032079
0.031140
0.032276
0.032237
0.027277
0.030864
0.032549
0.019960
0.016553
0.017716
0.028626
0.023779
0.032200
0.030834
0.028409
0.030749
0.015656
0.017120
0.015659
0.031471
0.031616
0.031823
0.020324
0.030556
0.024593
0.030630
0.032339
0.020978
0.032582
0.030445
0.032414
0.018681
0.033303
0.021850
0.030224
0.030627
0.034033
0.031406
0.032580
0.032899
0.032305
0.017754
0.032122
0.031156
0.031461
0.032475
0.022458
0.027077
0.016661
0.015366
0.018286
0.015995
0.016961
0.032233
0.033221
0.032163
0.030696
0.031996
0.027927
0.031373
0.031784
0.032570
0.032347
0.030016
0.021258
0.032439
0.015268
0.032167
0.032660
0.031792
0.030534
0.031508
0.031404
0.030329
0.028140
0.031987
0.032355
0.030990
0.032226
0.030767
0.027474
0.032861
0.026369
0.033559
0.029498
0.032958
0.032919
0.032125
0.031972
0.031007
0.030932
0.016039
0.031249
0.031286
0.031900
0.032378
0.026697
0.032399
0.032287
0.014810
0.034802
0.030490
0.028844
0.024563
0.017538
0.016077
0.016215
0.031400
0.031199
0.035518
0.026638
0.030789
0.023602
0.027041
0.032020
0.030884
0.033462
0.019946
0.032446
0.031384
0.031782
0.030042
0.031852
0.032195
0.031774
0.031542
0.032553
0.033407
0.031017
0.031751
0.030697
0.026879
0.031915
0.030520
0.033422
0.033139
0.031201
0.027575
0.031045
0.030679
0.032070
0.030720
0.031879
0.030884
0.025074
0.030241
0.031999
0.026312
0.030981
0.028685
0.033653
0.033720
0.032756
0.032530
0.032303
0.032346
0.033279
0.032990
0.025310
0.032425
0.022129
0.033202
0.024823
0.035187
0.031632
0.028905
0.030799
0.031436
0.032756
0.033855
0.021997
0.034121
0.036846
0.032569
0.031350
0.031277
0.032082
0.034260
0.033784
0.031722
0.031053
0.031723
0.032067
0.031493
0.030957
0.028643
0.028011
0.032953
0.031521
0.026013
0.032706
0.028582
0.031949
0.032048
0.030650
0.025152
0.032715
0.030027
0.031436
0.033029
0.021461
0.030223
0.036307
0.033442
0.030653
0.024265
0.030472
0.032249
0.026732
0.031236
0.032601
0.031211
0.032579
0.021237
0.031828
0.031357
0.019130
0.031872
0.015733
0.032617
0.030770
0.031404
0.030813
0.032547
0.022188
0.031373
0.031138
0.032472
0.032537
0.026037
0.033521
0.027812
0.023385
0.031321
0.033268
0.032809
0.030038
0.032553
0.032876
0.033345
0.031681
0.025770
0.020672
0.032185
0.032568
0.029541
0.031553
0.025259
0.032712
0.035584
0.033188
0.024300
0.032907
0.029224
0.030845
0.033627
0.032648
0.033076
0.026070
0.015201
0.022937
0.031847
0.032154
0.032625
0.032239
0.032672
0.031119
0.034581
0.030838
0.034133
0.022857
0.031994
0.029225
0.027163
0.032002
0.027652
0.032230
0.033304
0.028520
0.031474
0.031403
0.021770
0.032097
0.032977
0.031830
0.032946
0.025615
0.033412
0.021005
0.032722
0.032845
0.019123
0.032673
0.031135
0.032802
0.032817
0.039083
0.032856
0.019222
0.032289
0.032789
0.016251
0.015019
0.015423
0.016253
0.030327
0.032793
0.033972
0.028830
0.027508
0.031806
0.032297
0.031197
0.030599
0.020023
0.031070
0.032433
0.031685
0.027062
0.032407
0.031512
0.033001
0.016949
0.029122
0.032705
0.033201
0.031927
0.031670
0.019478
0.033321
0.034192
0.033299
0.029063
0.032908
0.031890
0.015525
0.032710
0.030690
0.025765
0.016109
0.033768
0.032472
0.026117
0.026416
0.017442
0.019516
0.016818
0.016519
0.019437
0.015737
0.033607
0.032298
0.032001
0.033854
0.030818
0.031405
0.030766
0.035645
0.031760
0.025958
0.032587
0.026849
0.026573
0.019371
0.015577
0.026376
0.030871
0.032596
0.030952
0.016333
0.015922
0.032903
0.034195
0.032078
0.030667
0.036495
0.021185
0.031967
0.033206
0.015994
0.024791
0.028391
0.029068
0.030892
0.016473
0.015270
0.031824
0.028044
0.028716
0.029924
0.032654
0.019178
0.033043
0.034250
0.027565
0.032482
0.031543
0.032003
0.015943
0.019149
0.016939
0.032842
0.034281
0.036612
0.019240
0.030802
0.030654
0.022437
0.021018
0.024751
0.030913
0.017246
0.033190
0.032588
0.032502
0.031973
0.032424
0.018770
0.030673
0.015408
0.019581
0.031407
0.032394
0.018461
0.017718
0.029275
0.032902
0.031061
0.034854
0.033681
0.032095
0.031697
0.031771
0.031756
0.031674
0.026201
0.032442
0.032157
0.031524
0.031741
0.031394
0.027548
0.029340
0.033134
0.032205
0.029652
0.031467
0.032133
0.031196
0.031653
0.032304
0.033428
0.031733
0.020614
0.032309
0.031004
0.027315
0.023878
0.032224
0.032149
0.030814
0.032266
0.030910
0.028415
0.031828
0.015206
0.031154
0.031200
0.032372
0.034163
0.030332
0.031877
0.031950
0.031583
0.032594
0.031687
0.023869
0.032029
0.032970
0.032060
0.031143
0.031541
0.021450
0.031461
0.019480
0.017004
0.019428
0.018567
0.019222
0.018964
0.032333
0.032115
0.024044
0.031586
0.032106
0.020388
0.032161
0.015582
0.015115
0.031767
0.030807
0.032959
0.022848
0.029781
0.031701
0.031367
0.032593
0.033338
0.031458
0.033257
0.032302
0.031753
0.027177
0.027906
0.032837
0.027865
0.031966
0.031622
0.031513
0.027960
0.032787
0.032116
0.027809
0.017938
0.032804
0.032791
0.031338
0.019948
0.033121
0.032956
0.032541
0.025360
0.032114
0.033495
0.030857
0.025923
0.015899
0.015633
0.034469
0.020211
0.030472
0.031667
0.031698
0.024248
0.028627
0.032999
0.031473
0.027527
0.032005
0.030704
0.032502
0.028093
0.030557
0.031012
0.031276
0.031858
0.033784
0.031201
0.032151
0.024155
0.032294
0.032254
0.023990
0.017269
0.015946
0.033012
0.032827
0.026675
0.031404
0.029308
0.032937
0.031783
0.031951
0.032093
0.017660
0.030436
0.030847
0.033052
0.029366
0.032091
0.028516
0.032268
0.032452
0.032347
0.016178
0.029081
0.030726
0.030470
0.031048
0.032336
0.032822
0.028460
0.031289
0.031239
0.023485
0.035276
0.032533
0.031153
0.030802
0.030762
0.032484
0.032034
0.030991
0.032322
0.016361
0.031037
0.034485
0.029212
0.019027
0.016280
0.016248
0.020467
0.015930
0.032881
0.033612
0.032539
0.021590
0.030986
0.031747
0.030047
0.032357
0.031892
0.034000
0.028573
0.036611
0.032598
0.027561
0.032822
0.021768
0.022351
0.030978
0.032408
0.031894
0.017121
0.031439
0.027119
0.014674
0.034453
0.029939
0.022154
0.032807
0.027675
0.033011
0.030477
0.028682
0.032231
0.033504
0.032713
0.031935
0.033089
0.017933
0.032895
0.033225
0.031657
0.015783
0.019247
0.017250
0.027834
0.032638
0.030941
0.035899
0.033651
0.016824
0.016516
0.015080
0.029138
0.033123
0.032700
0.027786
0.038587
0.031646
0.033009
0.032638
0.018245
0.032854
0.032816
0.034873
0.031649
0.032719
0.028398
0.032902
0.030661
0.032666
0.031383
0.031750
0.031791
0.030944
0.031480
0.031091
0.030531
0.033224
0.020895
0.032603
0.031620
0.032997
0.024681
0.024924
0.032131
0.020200
0.031379
0.031786
0.027809
0.032487
0.031513
0.030692
0.020997
0.033086
0.033197
0.031403
0.030985
0.030858
0.019545
0.032864
0.015546
0.031420
0.031880
0.033918
0.030880
0.031224
0.029650
0.031301
0.022812
0.032366
0.034012
0.028929
0.031757
0.015767
0.032885
0.030345
0.021651
0.032778
0.032130
0.031607
0.015092
0.015363
0.017219
0.031279
0.031212
0.031697
0.016583
0.036705
0.031069
0.031846
0.031703
0.031065
0.032128
0.022395
0.032266
0.030648
0.017428
0.018768
0.018533
0.022207
0.031355
0.031949
0.022320
0.019315
0.014820
0.019870
0.031990
0.031332
0.031435
0.014910
0.033345
0.031215
0.016596
0.024233
0.030786
0.032763
0.031469
0.030924
0.032102
0.020900
0.019868
0.028190
0.021141
0.034723
0.033965
0.032832
0.016439
0.032058
0.023723
0.027327
0.032225
0.016746
0.033893
0.021099
0.031525
0.032880
0.033503
0.032470
0.032435
0.034314
0.032201
0.031519
0.030714
0.027492
0.031406
0.029360
0.014874
0.018084
0.015339
0.019391
0.035090
0.023690
0.030725
0.016951
0.033026
0.028676
0.032285
0.019024
0.016705
0.015757
0.027958
0.036156
0.033357
0.016742
0.015546
0.031852
0.032192
0.032731
0.017770
0.029465
0.031797
0.032514
0.031916
0.032194
0.031160
0.024327
0.031756
0.028021
0.019415
0.031540
0.033783
0.023892
0.031904
0.030369
0.033412
0.031685
0.030521
0.033195
0.032326
0.030709
0.019989
0.033427
0.032501
0.030272
0.031352
0.017389
0.030871
0.034947
0.033763
0.028780
0.032921
0.031986
0.032394
0.032097
0.031941
0.031338
0.016082
0.031986
0.019848
0.027748
0.031238
0.017481
0.016625
0.018145
0.014592
0.016838
0.033228
0.030845
0.032447
0.032519
0.033018
0.032348
0.031025
0.028270
0.028173
0.032841
0.031474
0.031099
0.028497
0.031277
0.030803
0.020777
0.017931
0.015934
0.016932
0.018759
0.031746
0.030070
0.032486
0.031593
0.032609
0.033491
0.031374
0.032102
0.025728
0.031865
0.030839
0.032298
0.032400
0.034409
0.029532
0.032427
0.031761
0.033016
0.023856
0.031135
0.031985
0.021266
0.016580
0.015712
0.030397
0.031831
0.031593
0.023205
0.032829
0.024906
0.027129
0.032725
0.032122
0.030168
0.032416
0.024983
0.031521
0.031526
0.031625
0.034518
0.031054
0.030619
0.032536
0.015256
0.033664
0.031843
0.033407
0.033238
0.033440
0.030713
0.033868
0.033115
0.034181
0.030790
0.032343
0.030934
0.033842
0.031756
0.031127
0.032412
0.022165
0.032046
0.031333
0.031828
0.031919
0.018857
0.027268
0.033134
0.032854
0.018677
0.030955
0.032524
0.031843
0.020079
0.031159
0.030869
0.020865
0.032325
0.028172
0.032822
0.034860
0.027124
0.032980
0.030632
0.033210
0.024950
0.030983
0.031758
0.033272
0.032909
0.018712
0.017887
0.023448
0.031790
0.024719
0.031773
0.032201
0.031101
0.034041
0.030997
0.016432
0.015818
0.015911
0.015231
0.018785
0.032436
0.033716
0.031250
0.031936
0.025620
0.031994
0.031107
0.031540
0.032177
0.031105
0.031827
0.016267
0.032372
0.026078
0.031196
0.038912
0.031741
0.016467
0.032902
0.033205
0.033136
0.015782
0.015922
0.029843
0.032325
0.032826
0.023077
0.030159
0.024400
0.032534
0.023877
0.031518
0.031877
0.031651
0.032914
0.017608
0.031605
0.032545
0.032793
0.032547
0.029943
0.035587
0.033932
0.032456
0.031208
0.034073
0.027566
0.015886
0.031978
0.032183
0.024618
0.031160
0.031112
0.032302
0.030836
0.031327
0.025810
0.032130
0.032646
0.030599
0.031014
0.030599
0.029156
0.031953
0.032740
0.026336
0.022411
0.027455
0.031631
0.031471
0.031129
0.032563
0.024664
0.032396
0.017031
0.015660
0.024182
0.017058
0.030982
0.020947
0.031934
0.032324
0.030261
0.024521
0.032242
0.032731
0.034966
0.032232
0.034821
0.032170
0.031782
0.016078
0.031492
0.027429
0.016660
0.032581
0.031419
0.032166
0.031180
0.031647
0.030949
0.033632
0.020042
0.033974
0.032659
0.033010
0.034628
0.034330
0.033205
0.031331
0.030235
0.031920
0.032556
0.032344
0.024541
0.032357
0.032769
0.027960
0.032338
0.020709
0.031519
0.035466
0.020531
0.021065
0.029421
0.034189
0.031596
0.024191
0.025491
0.028777
0.034760
0.024979
0.033630
0.032560
0.027312
0.031564
0.028774
0.027636
0.032091
0.031156
0.031385
0.032892
0.031884
0.027882
0.030754
0.021295
0.024385
0.033848
0.019583
0.037741
0.024071
0.034209
0.030751
0.032567
0.033192
0.032966
0.029927
0.022378
0.016478
0.024476
0.033172
0.032636
0.031777
0.028963
0.032452
0.032028
0.032708
0.028085
0.031071
0.031334
0.030984
0.028700
0.032329
0.021270
0.033314
0.031786
0.031247
0.025071
0.032382
0.027344
0.031975
0.033909
0.031446
0.032153
0.031533
0.030833
0.024631
0.030600
0.033746
0.031476
0.031325
0.029984
0.031262
0.024170
0.033100
0.026385
0.033491
0.033668
0.031308
0.032018
0.033505
0.031840
0.034054
0.034045
0.028086
0.031549
0.030818
0.033069
0.023325
0.032908
0.031858
0.031644
0.032496
0.033256
0.032257
0.028074
0.033542
0.032730
0.031833
0.015523
0.033081
0.023342
0.030677
0.026949
0.027776
0.032025
0.029517
0.033288
0.019578
0.032366
0.036977
0.028825
0.031410
0.026892
0.031279
0.020417
0.032201
0.033387
0.031935
0.030738
0.033184
0.029607
0.025787
0.031680
0.032174
0.028496
0.032658
0.033177
0.024687
0.030302
0.032015
0.032063
0.027642
0.031475
0.031839
0.021832
0.031484
0.030514
0.031968
0.023485
0.032026
0.022688
0.032807
0.028434
0.023275
0.032138
0.030819
0.030465
0.031944
0.033108
0.032031
0.031271
0.029538
0.032885
0.023999
0.016562
0.032776
0.032166
0.034229
0.030953
0.032989
0.026204
0.032403
0.032588
0.033148
0.032674
0.031415
0.034733
0.020487
0.032126
0.025528
0.031852
0.032139
0.028987
0.031585
0.027408
0.033190
0.025282
0.032392
0.032495
0.030418
0.032615
0.032436
0.031164
0.031268
0.025482
0.030333
0.031604
0.020100
0.015182
0.029536
0.034410
0.033359
0.028565
0.019466
0.029278
0.030628
0.033931
0.030526
0.030854
0.030654
0.023988
0.031550
0.030148
0.032510
0.030925
0.016220
0.034504
0.031287
0.032356
0.028260
0.031976
0.031331
0.032262
0.033442
0.032231
0.032902
0.032524
0.017404
0.032501
0.024150
0.033325
0.023753
0.016482
0.023146
0.033120
0.034264
0.029247
0.033004
0.023968
0.024422
0.031899
0.027409
0.024459
0.033282
0.032459
0.025075
0.033029
0.032120
0.017669
0.032759
0.031568
0.026731
0.033116
0.031180
0.027461
0.031814
0.031958
0.031505
0.030244
0.025315
0.034471
0.031820
0.032723
0.031376
0.032643
0.025108
0.032501
0.020165
0.030777
0.032098
0.034142
0.031451
0.028416
0.032387
0.033488
0.015780
0.032003
0.030962
0.030786
0.031805
0.033238
0.032902
0.033170
0.034590
0.028283
0.032489
