439,222,25,43
433,221,33,45
434,221,33,47
436,221,31,49
438,220,33,52
441,224,31,52
448,225,28,53
455,228,25,52
456,230,27,53
464,229,26,54
471,231,45,49
477,226,58,50
485,223,53,55
487,224,54,53
483,224,57,54
484,221,59,57
488,216,58,58
485,227,61,54
489,228,61,62
484,222,63,71
491,227,58,67
484,232,58,64
489,233,47,62
497,238,42,57
498,235,34,57
507,232,38,62
511,231,39,61
512,226,40,52
515,226,41,47
518,224,40,50
522,222,41,52
525,213,38,60
527,213,39,53
530,216,44,50
532,217,46,48
533,215,51,51
532,219,57,50
531,217,62,49
527,220,71,48
526,220,73,53
526,222,75,58
529,224,74,61
532,227,70,57
535,230,65,57
537,232,66,55
532,234,70,56
525,235,81,61
522,231,84,67
520,232,84,66
521,231,84,64
520,229,85,67
523,228,85,67
532,226,73,60
529,228,74,56
538,229,65,53
544,230,60,53
546,229,59,52
548,231,63,51
542,228,78,57
542,227,78,60
550,227,68,61
553,226,66,61
554,227,64,60
554,229,67,58
552,229,75,60
552,231,76,57
551,231,76,58
551,229,75,60
553,230,69,61
552,231,65,60
551,232,66,59
546,234,75,59
545,231,75,61
543,236,74,60
545,236,70,58
543,237,68,59
542,236,67,61
542,237,65,61
540,237,68,62
542,238,67,60
539,239,70,58
537,234,70,61
536,240,65,52
531,238,73,55
533,238,66,50
525,236,75,58
531,231,66,54
521,236,76,58
528,230,68,58
523,238,72,55
529,237,64,53
530,236,64,52
535,237,60,50
536,238,60,48
533,235,74,57
532,236,75,59
536,241,66,55
542,238,61,59
532,238,75,56
536,237,63,54
543,238,63,51
547,238,61,48
545,237,66,49
543,234,70,54
546,231,66,57
544,235,70,55
543,235,74,54
551,234,59,49
555,236,58,45
557,236,57,45
555,238,54,45
558,237,51,45
553,236,53,46
549,235,57,45
542,236,60,43
540,236,55,44
541,234,52,44
536,235,54,46
530,234,52,44
523,234,56,45
516,235,52,43
506,239,50,43
502,240,45,41
497,242,45,41
496,243,45,41
497,245,48,41
493,248,54,40
502,243,47,41
505,243,52,37
511,243,56,38
572,251,49,44
561,255,53,58
534,248,62,53
537,243,58,69
525,241,51,54
516,248,63,65
507,236,53,68
490,235,44,70
480,242,45,65
458,242,60,58
438,239,71,56
436,238,66,58
430,240,56,59
426,245,51,67
424,239,43,72
424,240,37,62
415,237,46,53
414,236,49,53
413,236,51,52
413,234,48,53
416,233,47,50
411,231,49,46
408,231,53,40
407,229,54,41
407,230,56,40
402,225,59,44
401,223,62,44
397,224,65,41
397,222,65,42
396,225,61,41
394,220,68,41
396,217,64,44
398,215,62,45
404,215,53,51
410,216,44,55
413,220,33,55
416,224,26,51
414,225,26,51
412,230,34,58
400,238,46,57
399,238,55,51
397,238,63,49
395,238,67,50
394,238,66,52
395,238,65,51
394,237,66,52
395,236,62,52
396,236,58,55
396,235,54,67
396,236,47,67
393,233,49,70
395,234,42,66
398,233,40,59
392,227,51,55
391,232,59,55
387,225,67,57
386,220,70,57
384,224,73,58
381,220,74,57
379,217,73,58
380,214,68,61
386,209,54,64
397,217,37,60
398,220,32,57
399,215,30,58
397,217,30,56
384,221,45,52
381,218,61,55
372,222,69,52
360,222,74,55
361,221,70,56
354,220,70,63
351,219,71,62
347,218,66,63
342,220,65,63
336,221,70,61
330,222,88,59
332,221,84,59
338,220,61,58
353,218,52,62
348,220,53,61
344,219,67,57
341,218,73,56
341,216,72,55
346,212,65,54
346,205,59,57
347,203,55,60
351,203,48,60
351,203,42,57
350,208,38,52
349,212,39,49
344,218,44,49
345,221,54,48
346,222,60,47
346,227,68,48
348,225,74,56
354,227,71,59
358,229,68,58
366,230,66,58
373,231,63,57
390,236,55,66
395,231,56,73
399,236,55,68
411,238,55,67
416,240,55,72
417,248,52,68
468,237,51,51
523,237,63,51
519,235,58,57
509,231,55,61
510,234,42,64
508,235,44,61
503,237,50,53
499,232,53,53
483,230,69,52
480,233,70,55
477,229,68,53
473,230,69,52
468,230,70,53
464,230,72,55
463,229,68,55
462,228,58,57
461,227,62,60
460,229,55,58
463,234,49,56
462,240,48,50
463,235,41,55
459,234,46,54
456,234,48,52
451,233,63,49
449,232,66,50
450,235,59,49
450,235,61,49
448,237,66,48
441,237,67,53
437,238,66,54
434,242,61,55
427,244,54,60
426,241,61,55
426,246,56,64
418,244,65,56
418,245,65,54
418,246,63,52
418,249,55,50
415,250,56,48
414,248,51,48
413,247,58,47
411,247,58,51
405,245,64,52
405,244,65,53
403,245,68,53
402,243,67,54
404,242,66,52
404,242,66,52
406,241,67,53
410,242,67,52
411,242,68,53
415,242,64,53
418,242,64,53
422,244,60,53
423,247,60,52
426,246,59,54
429,245,56,57
431,243,55,57
439,242,58,52
440,240,62,53
445,240,59,55
447,242,57,56
452,242,55,54
457,242,51,50
460,242,53,53
460,241,56,50
460,241,60,52
453,237,65,56
451,238,64,57
447,239,66,55
445,238,65,55
447,237,67,57
450,241,61,54
453,242,56,50
455,244,56,49
457,242,58,50
458,245,56,48
456,244,63,51
453,244,67,54
454,244,61,55
453,244,62,57
452,244,57,55
452,244,61,56
452,243,61,56
452,242,61,57
453,242,61,56
454,243,56,54
454,245,55,53
451,242,59,51
449,240,62,51
444,240,65,52
446,247,62,47
440,241,67,53
443,244,69,58
442,243,53,55
440,244,52,52
438,245,55,53
433,242,67,55
435,244,67,52
412,243,69,56
435,243,52,61
435,245,47,60
435,245,65,52
431,245,66,56
427,248,65,55
432,246,59,55
438,245,52,56
435,246,55,54
434,240,66,52
432,242,67,51
435,238,61,50
437,237,59,48
438,234,66,50
438,233,68,55
440,232,67,59
444,233,62,56
446,233,60,52
446,229,64,53
447,228,65,50
450,228,63,46
449,228,65,46
450,228,64,46
448,228,64,46
442,230,60,49
430,231,68,53
416,231,72,56
411,230,74,55
403,231,73,61
394,229,67,59
394,230,67,65
387,230,67,63
382,232,67,62
382,228,67,63
383,227,67,60
381,228,67,57
399,235,56,65
404,237,50,59
393,238,66,57
397,240,68,57
407,240,63,57
413,238,61,52
411,237,67,69
428,233,62,56
435,227,64,59
440,222,73,57
444,220,69,57
449,219,70,59
453,219,68,56
453,223,64,57
451,223,59,51
445,228,57,49
441,233,57,53
430,236,62,53
423,238,67,57
419,238,65,58
415,243,69,56
414,242,66,54
411,245,61,58
411,244,61,53
412,244,60,52
411,245,62,49
410,243,66,50
411,246,66,52
412,242,66,53
415,241,63,57
415,241,64,57
419,243,66,54
420,243,66,54
422,243,66,53
424,243,64,53
427,240,65,55
428,242,64,55
429,242,66,54
433,245,66,50
434,243,65,52
435,243,64,49
437,242,64,50
438,240,64,52
439,240,61,59
435,238,65,61
446,239,56,55
445,237,63,54
449,242,62,49
449,239,64,50
453,238,62,49
457,241,58,45
457,240,59,45
456,241,59,45
459,242,58,44
459,244,59,46
453,245,66,50
453,241,60,54
451,246,65,55
449,241,59,55
444,247,52,53
441,244,52,55
435,248,58,53
429,243,59,54
423,241,65,53
422,249,64,48
420,244,57,50
418,248,57,48
413,247,61,49
409,248,62,49
408,248,60,49
408,252,53,53
403,250,53,54
404,250,55,52
403,249,60,48
403,251,58,46
405,250,57,46
406,253,53,45
409,253,55,43
409,252,58,43
408,251,59,47
414,251,48,54
416,252,43,55
415,251,53,51
415,248,52,52
417,246,53,54
417,244,56,51
418,242,58,49
420,241,58,48
423,241,55,49
425,241,54,44
426,241,53,44
429,239,52,53
434,237,53,60
441,237,56,58
448,235,57,60
457,231,58,49
456,232,64,60
474,227,64,50
489,226,65,53
494,222,62,53
506,218,60,49
517,219,63,53
528,214,59,45
529,211,64,49
528,208,69,61
529,205,71,54
532,210,66,67
533,209,68,55
528,220,70,53
526,224,73,58
518,228,85,61
491,232,78,55
483,239,74,53
473,245,75,49
450,247,80,50
423,243,76,55
408,240,73,57
399,238,68,57
391,235,66,60
385,233,65,57
381,231,66,60
380,232,63,57
380,231,62,58
384,232,65,57
391,233,65,57
400,237,66,55
415,236,63,56
429,240,60,54
449,240,58,57
475,235,67,58
488,228,70,56
508,219,72,53
536,210,60,53
563,249,67,49
555,193,62,48
543,229,64,55
537,226,63,56
534,222,64,56
529,219,69,56
532,222,72,58
538,228,71,59
545,239,65,58
562,215,66,57
543,219,64,57
522,224,63,56
502,231,70,50
463,230,71,52
441,228,72,54
424,223,64,53
412,219,61,54
406,212,55,53
402,210,53,53
400,208,51,51
399,214,51,51
400,219,49,56
415,231,46,73
416,231,49,76
416,235,50,56
421,242,58,52
425,243,71,59
464,237,72,59
491,232,71,56
518,225,65,57
535,213,70,56
549,203,66,51
501,235,74,54
488,228,68,53
477,225,66,53
476,221,67,54
475,221,66,53
480,224,73,55
490,231,76,55
510,240,63,55
521,208,55,53
504,217,59,50
470,221,68,50
434,222,72,50
407,216,69,50
392,212,66,51
385,206,60,50
379,201,58,51
379,197,57,52
379,199,57,49
382,200,57,50
384,203,62,50
389,208,56,52
398,211,62,51
405,215,60,53
412,218,59,50
411,248,53,65
423,240,50,69
437,227,51,53
440,230,49,49
448,229,57,49
453,225,53,47
457,225,54,44
456,224,56,43
459,223,56,41
459,223,57,41
458,222,58,43
457,221,58,45
456,222,57,49
458,227,53,49
452,234,57,51
450,237,56,53
446,242,57,55
443,247,59,55
441,251,58,52
443,254,57,52
440,254,57,48
442,248,59,52
443,243,60,51
441,239,54,52
443,238,47,46
444,234,48,44
443,231,53,45
446,227,51,44
443,220,54,47
442,219,62,45
439,233,71,59
492,212,77,62
497,218,116,64
425,243,64,66
424,268,57,54
424,283,55,59
417,315,62,49
417,319,66,53
418,314,67,57
425,281,73,58
428,251,69,69
441,181,53,66
513,164,49,71
510,146,51,80
486,124,72,95
571,69,61,61
565,59,47,58
548,68,52,65
528,56,96,43
537,58,75,43
554,73,55,41
544,97,55,43
545,120,53,51
548,166,65,45
578,200,52,60
563,222,77,68
580,237,69,65
565,251,91,73
579,263,88,73
587,269,85,75
591,275,93,83
594,272,101,86
597,272,102,87
601,264,97,91
600,253,93,86
599,243,101,76
592,237,108,81
592,229,108,81
591,222,108,78
589,219,110,74
588,214,109,73
591,211,101,70
585,215,109,61
582,213,108,57
577,213,108,59
586,228,102,61
589,234,94,62
586,222,92,74
569,213,93,79
553,215,97,78
540,214,105,82
531,215,109,84
526,217,111,81
514,216,121,88
515,223,113,85
493,226,123,79
504,225,100,80
496,220,90,78
496,220,87,72
475,227,99,73
482,216,95,70
472,212,100,69
465,210,96,70
461,204,70,79
455,203,85,73
450,206,87,70
443,208,95,66
445,202,95,67
451,213,99,78
438,211,105,66
439,214,103,62
437,217,88,78
434,215,103,61
441,217,102,63
458,217,86,49
468,219,84,57
488,222,77,59
476,218,87,66
484,218,88,66
490,211,84,67
504,218,90,60
517,218,87,61
505,206,90,67
514,212,84,60
516,214,81,59
516,211,81,60
515,220,77,62
521,219,81,54
518,220,82,55
517,222,83,56
524,228,72,61
521,234,80,61
524,233,80,60
527,233,80,60
527,235,71,61
532,244,87,59
542,243,88,65
551,240,89,70
557,242,90,71
561,244,92,74
565,247,89,76
569,253,88,77
573,260,87,77
574,265,90,79
577,272,90,76
580,280,88,71
589,281,79,73
589,286,81,68
591,287,78,69
590,289,78,66
592,286,72,66
587,289,78,65
588,289,78,65
587,287,75,65
584,287,75,64
583,286,71,61
583,286,71,62
569,284,82,61
565,281,82,64
561,278,84,64
559,276,83,62
559,272,81,63
558,270,79,62
559,270,78,61
559,270,77,60
558,268,78,63
558,269,78,63
557,268,80,64
558,266,80,69
556,262,85,70
554,261,86,73
556,259,83,72
556,257,82,73
559,261,73,67
556,264,64,60
556,260,83,59
551,259,86,59
552,260,83,58
555,261,79,58
556,262,75,58
556,263,75,57
554,262,77,58
557,262,79,64
555,258,85,69
560,256,81,70
566,251,71,72
571,251,56,59
587,255,43,63
592,256,37,60
595,260,33,53
595,258,37,51
597,260,42,50
604,264,42,51
614,267,38,51
619,268,33,54
621,268,41,52
615,264,46,55
594,259,61,52
596,248,57,53
595,239,59,51
595,226,59,50
595,218,54,50
594,205,54,52
599,202,52,50
613,195,39,50
616,213,48,35
632,241,57,37
658,245,57,48
647,259,67,54
652,271,59,58
656,277,77,65
661,270,73,68
640,261,78,65
641,239,78,63
625,225,78,61
613,209,79,65
605,202,82,58
598,197,78,56
601,196,68,55
598,203,63,50
612,205,47,51
609,221,47,50
587,244,54,56
603,258,49,60
616,253,38,49
628,274,40,59
634,284,46,56
635,285,51,60
638,284,48,56
637,285,48,58
632,271,48,56
630,269,46,46
630,265,48,48
628,261,48,50
624,256,48,49
622,249,50,48
603,244,57,45
602,242,56,47
607,239,56,50
603,236,62,55
595,227,60,58
590,220,61,60
584,205,62,61
592,195,53,62
594,190,48,51
590,189,47,45
560,186,73,42
558,181,74,46
568,187,66,41
576,186,57,48
589,189,45,52
575,218,44,49
586,230,53,52
596,237,51,48
600,242,52,55
603,244,58,56
607,242,59,55
608,246,59,49
613,248,54,48
606,251,57,49
607,249,58,48
607,248,56,48
603,248,55,44
605,248,51,44
603,245,53,43
602,245,53,48
598,245,57,48
595,245,60,49
593,243,56,53
577,245,62,52
568,246,58,54
560,244,60,53
551,246,58,53
538,243,63,54
523,239,67,56
495,240,73,52
429,220,60,53
423,222,55,47
415,222,55,44
405,225,53,49
394,225,54,51
386,226,54,51
380,227,54,51
377,226,54,51
372,228,56,51
369,228,58,51
367,229,61,53
366,229,62,52
368,230,61,53
369,232,60,54
375,235,56,52
383,235,51,56
385,234,51,55
388,231,54,52
393,230,56,50
396,228,57,50
399,226,60,51
400,224,64,53
403,222,64,53
406,222,64,54
411,223,63,53
414,222,62,53
417,220,61,54
421,222,60,54
427,222,57,52
431,224,56,49
434,223,56,49
439,224,54,49
439,227,60,51
442,224,59,58
444,220,56,58
447,222,58,51
449,223,55,50
451,224,55,50
454,220,53,51
457,221,53,54
457,220,54,50
459,220,58,48
459,219,56,49
457,219,61,51
458,218,61,52
456,219,61,57
456,220,61,58
455,222,61,57
455,222,61,59
460,226,65,55
459,228,66,52
462,231,65,50
463,230,65,50
466,233,62,48
468,233,61,50
469,234,61,49
468,233,66,51
469,230,66,53
470,230,60,53
470,229,58,58
472,226,49,56
469,228,48,54
464,225,51,53
458,225,53,50
455,222,63,53
454,222,69,55
455,226,61,48
458,228,60,47
458,229,60,48
457,233,61,49
453,235,66,53
452,236,62,55
451,239,60,53
452,239,57,53
453,239,55,53
449,237,59,53
450,231,70,57
449,226,71,58
451,228,72,56
452,225,67,58
454,223,66,58
455,219,64,59
458,217,71,55
458,216,71,56
459,215,71,53
461,214,70,48
462,213,69,46
466,212,67,43
469,212,65,41
469,210,65,41
470,209,63,41
473,206,63,48
468,206,68,52
468,203,66,55
465,205,67,56
461,204,65,59
459,204,69,59
458,205,71,60
457,204,73,62
455,206,72,63
451,205,77,63
448,205,78,61
448,205,73,53
442,220,87,51
446,212,79,64
440,208,77,60
441,207,74,59
439,208,76,59
436,207,76,58
432,206,79,60
433,209,74,58
427,208,81,62
425,208,82,61
425,208,81,62
423,207,81,62
422,205,80,64
421,206,81,64
421,206,81,63
421,206,81,64
421,205,81,64
421,206,81,63
420,208,82,62
422,208,80,63
422,209,81,62
422,209,81,62
422,209,82,62
422,209,82,62
422,210,81,62
423,209,81,62
423,208,81,62
423,208,81,62
422,210,80,61
423,211,79,60
424,211,77,60
424,211,77,60
425,211,77,61
427,212,78,62
428,212,77,61
429,212,77,61
432,212,75,60
433,213,74,60
434,213,73,60
436,213,72,61
436,213,72,60
438,214,72,60
438,214,71,60
440,213,72,60
441,214,71,59
445,215,70,59
449,215,66,54
456,216,53,58
463,215,44,57
471,211,32,57
479,207,30,57
479,206,34,49
484,203,35,58
485,201,40,61
484,197,44,65
482,194,48,65
484,190,49,64
484,184,53,65
482,183,53,71
485,184,59,62
482,184,60,69
482,181,62,63
484,181,65,66
486,181,70,69
480,185,72,59
483,181,62,71
482,179,69,66
482,183,67,63
480,178,65,65
475,179,65,63
475,179,61,65
476,175,57,69
494,171,61,74
481,175,61,73
537,181,68,59
537,179,60,62
533,179,58,62
525,178,59,63
526,170,49,50
519,163,45,42
521,160,32,40
514,164,32,35
512,166,33,40
509,169,38,40
502,165,36,38
498,175,46,46
502,163,38,49
503,161,34,38
504,159,26,39
503,158,25,37
502,159,25,36
501,160,26,35
500,161,27,33
499,159,27,36
499,159,26,36
499,159,27,35
498,159,27,36
498,166,31,38
499,168,31,41
492,177,46,50
487,171,49,59
493,164,43,54
499,161,38,55
492,172,45,60
503,179,55,60
506,170,55,65
501,176,60,63
489,169,62,68
478,168,66,66
490,166,56,64
484,163,62,69
487,157,63,69
494,160,60,64
496,156,61,60
496,154,62,60
498,152,57,61
504,160,57,68
488,192,94,58
491,181,94,64
490,177,105,68
508,138,69,67
521,130,50,61
518,144,65,54
531,149,63,47
520,151,66,45
521,148,65,43
525,136,56,53
525,127,56,48
527,131,55,43
527,132,53,41
533,120,48,49
533,118,44,51
536,117,43,50
540,114,38,51
543,116,36,50
545,111,36,53
548,110,35,52
546,112,37,47
546,110,41,42
539,111,47,41
537,100,49,54
524,105,67,47
516,103,46,50
523,92,59,52
522,94,58,52
518,92,59,52
521,96,56,53
538,120,42,44
543,131,50,35
536,135,47,41
540,149,53,38
504,156,52,38
509,162,46,42
503,177,52,38
497,184,55,42
507,181,58,40
505,189,56,39
501,190,59,39
496,188,63,40
504,188,67,41
502,178,65,47
497,184,70,45
505,186,64,43
507,178,62,45
504,181,61,42
499,178,66,41
510,172,58,48
512,176,57,44
512,173,57,48
510,176,56,48
514,172,54,45
519,171,47,47
515,169,54,44
515,170,55,43
516,166,54,42
519,162,48,39
514,164,60,34
512,170,64,29
513,171,77,31
517,178,66,27
514,175,67,29
504,178,44,36
509,174,41,46
521,166,63,31
544,168,41,39
524,165,59,39
516,166,75,44
518,164,71,50
518,166,74,53
514,169,81,60
521,180,69,55
515,177,75,55
509,182,88,57
513,181,85,61
510,181,86,64
510,184,88,64
511,186,86,65
507,187,84,67
506,188,85,68
505,189,85,70
502,191,83,68
501,193,84,65
501,195,81,61
497,195,80,59
498,195,80,58
496,194,78,56
493,193,81,56
491,193,79,55
486,199,71,53
490,202,69,51
488,209,68,51
483,214,66,51
481,219,69,49
491,219,61,48
498,208,62,50
502,211,64,48
494,198,64,54
486,191,75,55
482,189,79,53
482,188,79,51
482,188,77,49
483,188,73,49
481,188,73,47
483,186,69,47
482,186,70,47
482,186,68,45
484,187,68,43
482,186,70,45
484,185,67,47
487,183,65,46
486,181,67,46
488,179,64,47
492,175,59,48
492,167,60,55
492,165,62,54
494,163,59,55
497,160,59,56
495,156,61,58
495,159,58,58
501,155,56,60
498,157,54,58
509,152,50,58
499,161,47,57
504,161,46,54
500,161,44,55
494,164,52,54
499,160,52,57
500,155,55,58
494,154,61,52
491,158,57,50
495,149,64,54
483,153,57,55
483,155,60,52
483,151,70,57
483,147,70,60
482,143,72,63
481,144,76,62
487,140,75,62
487,139,76,60
490,138,76,60
493,138,75,59
495,136,75,60
497,137,76,59
498,135,77,61
498,136,80,59
501,133,79,62
503,135,78,60
504,134,78,60
508,135,75,58
511,133,74,58
514,130,73,60
515,126,74,62
511,123,81,66
515,122,84,67
514,120,86,68
516,146,84,41
515,157,76,36
522,162,64,26
527,167,59,24
523,164,63,24
527,124,68,56
523,124,70,62
522,124,73,62
521,123,77,65
523,121,76,65
522,122,77,65
523,121,78,66
525,118,75,67
524,117,75,67
524,114,75,66
522,112,76,68
520,110,78,68
519,107,78,70
517,105,80,71
515,104,82,70
516,101,80,61
517,102,74,61
513,116,76,62
513,119,71,56
487,123,83,46
463,103,63,62
458,100,65,62
454,100,67,62
453,99,69,63
449,99,71,64
458,98,66,65
453,100,69,64
455,98,73,65
452,100,73,64
460,98,71,67
457,100,70,65
463,98,66,69
457,102,70,65
452,100,76,67
470,102,61,69
462,105,73,66
463,107,70,67
470,105,68,70
462,107,74,77
465,114,80,72
467,114,85,73
473,121,84,69
474,122,76,69
476,127,74,64
476,130,74,60
476,132,72,59
477,134,69,57
477,135,70,57
477,134,70,57
479,134,68,58
478,135,49,56
483,136,56,54
485,135,65,52
485,134,64,52
487,134,66,52
489,135,66,50
489,135,67,49
489,138,68,46
490,136,68,51
490,137,69,54
489,136,70,57
488,142,68,55
488,140,68,60
490,143,67,63
485,153,63,57
481,151,69,57
481,156,69,55
480,155,69,56
475,164,71,50
474,162,69,49
474,160,67,50
468,177,61,35
484,158,54,49
470,155,67,50
468,149,69,56
466,145,70,54
465,144,69,55
465,141,68,55
463,137,63,58
463,134,70,58
465,134,67,56
471,130,62,54
548,126,66,53
540,124,61,54
555,118,59,59
558,113,57,59
561,108,52,61
548,105,65,56
546,103,65,54
547,100,65,54
550,102,59,55
549,98,65,56
548,96,65,57
548,97,66,56
550,96,65,56
551,95,64,58
549,96,65,57
568,96,48,59
555,109,55,49
552,109,61,55
543,111,64,61
545,122,56,56
520,134,77,56
544,158,68,62
543,173,70,63
465,207,69,58
472,212,68,62
469,246,65,67
466,266,66,60
464,285,57,59
462,305,53,62
472,300,46,62
465,303,52,57
467,310,64,57
463,308,71,53
464,306,74,60
464,305,70,59
463,300,74,61
463,288,76,63
466,297,72,58
464,292,72,55
466,290,70,54
465,289,70,53
463,289,71,53
462,287,71,51
463,285,71,51
461,282,73,51
461,277,73,53
460,272,70,52
460,267,74,55
462,261,75,60
463,252,79,65
464,251,76,61
468,242,73,62
469,232,68,60
466,226,71,63
468,221,69,59
469,223,67,55
474,216,62,58
471,218,64,58
473,213,63,57
468,218,67,54
467,218,69,56
465,219,69,54
466,221,68,54
464,217,69,57
464,226,66,51
464,214,71,57
471,222,66,61
477,220,60,59
476,225,58,54
476,222,56,56
472,220,61,58
467,219,71,58
466,221,72,57
466,221,70,57
467,222,68,56
467,224,66,55
467,228,62,51
467,228,64,52
463,225,65,55
461,232,64,53
452,236,66,48
446,231,65,54
431,234,63,55
421,230,66,54
408,225,71,56
397,222,72,57
387,219,72,58
379,216,70,57
377,213,65,57
374,210,64,55
371,208,64,56
370,207,65,56
369,208,67,56
368,208,73,57
372,209,71,58
379,212,72,56
389,212,64,52
400,216,55,51
412,214,53,51
414,214,55,51
420,213,52,52
427,207,49,55
429,206,50,57
431,210,50,58
433,211,52,52
434,213,58,51
436,215,61,50
438,217,60,48
441,213,62,52
446,211,65,54
445,214,72,56
462,214,67,52
510,204,65,53
491,195,74,54
480,191,73,53
469,181,68,55
453,177,74,53
501,201,65,60
435,176,66,52
430,177,65,53
428,178,64,52
424,178,65,52
422,179,66,53
425,180,70,54
432,179,68,55
443,180,70,58
450,179,79,59
470,183,89,55
493,182,98,58
491,228,92,57
486,227,85,58
464,228,80,56
446,224,73,61
423,221,78,62
407,219,77,67
402,213,70,65
399,207,68,58
398,205,66,56
401,204,62,55
402,202,62,53
407,200,62,55
410,201,68,54
415,201,69,57
421,202,71,57
517,198,66,70
514,199,79,73
507,197,79,76
501,198,79,77
485,200,85,69
484,201,86,65
490,204,79,62
492,204,75,59
483,221,52,71
474,235,53,57
469,233,48,58
468,228,38,62
468,226,34,62
468,226,31,62
461,227,31,57
455,228,35,56
447,230,41,54
439,229,49,54
434,227,55,57
431,227,61,61
432,228,65,59
436,224,76,63
444,224,70,64
460,222,63,61
466,219,65,59
481,216,54,59
490,214,53,64
494,218,55,60
498,210,54,77
499,209,54,61
505,206,64,62
501,206,72,58
498,204,74,58
496,202,75,55
494,203,79,55
493,204,75,55
495,202,68,56
494,208,66,55
488,208,68,62
485,209,75,62
487,218,70,56
480,212,74,58
478,219,70,57
477,218,68,59
476,221,64,58
475,224,65,54
474,223,66,56
473,223,67,55
471,225,68,54
472,225,69,54
477,225,64,55
479,224,59,58
482,223,61,59
480,221,68,61
481,222,72,58
482,223,71,57
489,221,64,61
492,222,62,62
494,223,71,60
494,224,77,61
499,230,77,59
504,227,61,60
507,233,55,53
508,232,55,56
506,225,63,63
502,225,72,60
497,224,79,61
499,222,78,61
495,222,81,60
501,222,76,57
505,241,65,51
496,224,76,55
496,226,73,55
498,227,72,54
498,227,66,55
496,231,64,52
495,230,60,54
496,233,54,53
499,231,55,53
497,230,58,56
494,230,59,56
494,227,61,59
491,242,65,45
492,234,65,53
491,234,66,52
493,231,63,56
495,231,67,55
499,230,64,57
501,230,66,56
506,232,63,52
507,228,65,60
511,230,72,60
516,229,68,56
536,225,59,57
540,223,58,56
546,224,60,55
551,222,69,53
552,219,77,55
557,219,78,53
561,228,76,51
557,223,78,53
570,216,74,58
575,214,72,62
577,214,70,62
578,217,68,58
579,217,67,57
572,217,72,57
572,219,72,55
572,221,67,54
574,223,62,52
562,224,71,52
561,225,70,52
563,225,68,55
561,226,64,55
558,223,62,57
557,224,64,56
551,224,67,53
550,224,66,52
549,224,64,52
549,224,65,51
548,231,54,45
549,224,57,53
549,225,54,52
550,227,52,53
551,229,50,52
597,239,69,52
589,238,74,54
547,232,51,54
547,235,49,48
547,238,44,48
550,237,51,49
579,234,69,51
576,232,66,53
575,230,71,54
579,229,65,53
582,229,62,51
580,230,65,53
581,230,72,54
580,230,78,57
583,230,76,56
593,232,66,53
605,233,56,50
531,236,54,49
531,233,52,50
532,231,48,48
534,228,45,46
536,226,41,45
537,227,41,45
538,224,46,45
539,222,52,44
538,218,57,45
539,216,57,49
541,214,60,48
546,212,58,50
546,210,57,50
548,211,51,49
551,211,62,51
543,211,70,56
537,212,71,59
535,212,73,60
532,215,64,57
530,214,64,59
531,216,60,57
524,216,66,53
523,214,67,52
521,213,70,51
522,213,72,54
536,210,80,53
522,211,86,58
627,223,73,65
623,231,76,62
618,237,79,64
628,239,74,58
636,243,69,61
641,247,65,57
645,245,63,62
646,243,64,65
644,242,62,68
641,244,61,65
639,243,59,65
604,252,47,57
584,251,58,57
497,229,62,53
484,226,73,53
483,226,76,55
486,231,67,53
488,226,73,56
498,228,63,57
496,228,66,58
500,228,62,59
491,229,70,59
490,227,71,62
487,226,72,62
488,228,73,57
486,229,73,58
485,227,73,60
484,225,76,61
484,224,77,62
489,224,74,61
497,221,64,63
500,220,62,59
504,220,61,57
505,218,62,59
505,223,70,59
504,225,73,54
505,223,68,57
508,220,67,61
512,227,68,53
513,227,72,53
516,224,72,61
520,225,72,61
525,225,67,61
530,227,62,59
534,228,60,56
534,230,61,55
540,230,65,53
543,230,66,54
549,237,64,52
548,231,66,54
553,229,69,62
557,226,66,64
559,223,70,61
561,220,72,55
561,219,74,51
561,220,74,51
561,219,74,51
559,219,73,52
554,224,66,50
552,222,72,55
551,227,62,55
545,229,64,52
542,232,62,51
538,234,65,52
532,236,63,51
526,239,58,49
521,242,55,49
517,244,58,49
515,244,51,49
515,246,45,51
514,247,46,46
519,244,35,42
520,244,31,40
521,240,28,35
523,242,25,33
526,247,22,51
526,245,24,54
526,244,25,50
527,242,25,53
526,242,26,54
527,243,26,52
525,244,25,52
523,245,23,52
524,245,23,52
523,247,22,51
524,246,22,52
525,251,21,51
526,250,23,48
531,244,22,50
535,241,22,51
541,238,21,50
540,227,28,33
540,220,36,36
548,209,37,40
551,196,43,40
562,184,40,42
550,186,51,45
549,145,50,45
548,132,59,46
546,120,68,50
544,111,74,58
543,104,79,63
543,101,80,62
544,101,81,64
547,105,79,62
550,109,81,61
554,115,80,58
560,119,77,56
565,122,73,56
567,124,74,56
568,123,77,58
570,119,80,63
572,114,85,69
576,108,90,69
582,102,92,71
589,99,92,70
601,101,91,67
626,107,87,62
634,107,75,64
649,125,68,58
669,132,58,63
662,158,71,53
673,189,72,56
652,193,68,59
646,208,78,66
640,221,77,72
621,225,80,67
618,223,64,72
