306,149,137,100
305,148,144,102
303,146,144,101
303,146,147,103
304,145,139,101
304,144,143,101
301,145,148,103
304,144,137,100
306,144,140,101
302,144,143,102
304,143,139,102
303,144,144,103
302,142,143,103
301,142,139,103
305,143,141,103
300,144,143,103
303,141,142,103
299,145,145,104
299,143,142,102
298,147,147,104
299,145,143,101
301,145,150,105
295,147,142,103
296,147,147,105
296,148,147,101
293,148,153,104
290,149,150,103
289,147,148,106
286,148,148,106
283,149,147,104
279,149,147,105
281,149,143,105
281,150,142,106
280,150,142,105
279,149,143,106
282,149,141,105
280,149,142,106
282,150,143,106
280,148,147,105
284,148,145,105
283,147,145,106
286,145,145,103
289,144,146,107
295,143,149,107
292,145,158,108
438,135,132,105
427,134,141,108
436,135,134,105
302,144,160,108
447,137,125,101
435,138,125,103
306,141,156,107
306,139,166,104
303,138,168,108
307,138,165,107
305,137,168,110
308,138,165,109
308,138,165,108
308,139,164,109
309,141,163,108
309,139,165,110
310,141,164,109
309,141,160,110
307,141,162,112
303,141,156,111
300,142,158,112
297,144,150,111
293,145,157,110
287,145,154,111
281,146,156,113
275,146,152,114
274,148,148,114
269,150,149,113
269,153,147,110
267,155,149,111
267,156,147,110
267,159,146,109
265,160,149,109
267,159,148,111
270,158,145,111
272,159,146,109
273,158,145,109
275,157,148,108
275,156,146,109
277,155,147,109
278,154,144,110
278,154,143,107
280,152,142,108
281,151,141,109
284,150,137,104
289,147,133,103
291,142,126,108
286,145,128,103
301,143,110,105
278,147,70,99
331,149,75,105
317,144,95,110
312,141,108,111
312,139,115,110
313,139,119,111
311,136,129,112
300,132,147,116
306,129,144,117
303,128,140,115
309,128,139,118
295,126,152,118
296,128,153,120
302,128,149,115
296,132,151,115
295,132,130,116
302,135,141,115
296,133,152,115
450,136,133,109
314,134,132,113
289,133,124,116
294,133,137,117
296,133,132,114
303,135,127,113
304,133,131,112
308,135,138,112
307,136,143,112
306,135,145,111
308,136,142,108
317,131,138,113
309,134,136,114
318,133,127,114
303,134,100,113
299,137,103,111
300,138,95,108
303,136,107,109
303,139,103,108
299,135,117,110
303,137,134,108
306,134,136,110
294,132,158,115
301,127,143,118
294,130,149,118
286,129,150,118
284,131,146,116
285,132,143,116
281,132,142,115
278,133,141,114
280,132,137,115
279,132,134,114
277,131,135,115
275,132,135,113
275,133,135,112
273,131,136,114
273,130,135,114
274,132,134,113
272,130,135,115
273,130,136,115
271,129,136,116
271,130,137,115
272,133,137,113
273,131,139,115
272,133,142,113
273,132,142,114
274,132,144,114
283,132,133,113
280,133,128,113
281,132,126,114
286,133,124,113
286,135,128,113
285,134,133,113
286,134,133,114
287,133,137,115
285,133,142,116
288,134,141,115
286,133,145,116
285,133,146,115
287,132,144,114
286,130,146,118
289,130,145,115
285,130,135,115
288,131,146,116
289,124,159,119
306,123,149,117
322,120,131,117
303,118,155,122
317,114,143,124
321,112,135,126
345,112,119,127
337,118,130,118
328,120,138,121
347,124,118,121
326,131,140,115
303,130,158,118
296,135,160,116
311,137,152,112
309,143,144,110
311,144,138,108
306,142,139,112
299,139,139,113
296,140,134,111
297,142,139,110
294,141,132,109
286,141,142,111
282,141,142,111
281,140,145,113
278,139,145,115
277,141,150,110
278,137,146,116
276,138,143,114
275,138,143,115
273,138,138,109
275,138,135,105
277,139,128,107
278,138,128,112
280,137,128,113
285,140,124,110
285,139,123,109
288,138,119,109
289,137,122,109
289,137,125,110
293,139,120,108
293,137,119,110
293,139,123,110
293,137,123,112
289,138,130,112
284,139,139,112
284,139,141,114
285,137,141,116
285,138,138,116
280,138,141,115
279,140,141,114
278,140,141,115
277,141,139,115
275,141,138,113
274,141,136,108
269,142,138,104
269,144,135,107
268,144,131,106
263,144,135,108
261,143,134,107
262,145,134,110
253,138,147,111
263,141,135,114
258,145,139,109
256,141,139,109
263,144,133,110
262,144,136,109
262,144,136,111
262,144,137,112
264,144,135,112
264,144,136,112
260,145,140,111
258,148,141,107
253,145,146,113
251,144,148,115
245,145,155,113
247,146,154,113
254,144,146,118
250,141,150,120
261,145,138,118
271,141,127,119
276,140,117,116
286,137,103,114
294,135,97,113
309,132,83,114
277,135,112,111
277,137,114,110
283,134,113,111
287,136,109,109
330,146,61,103
342,144,49,99
339,138,45,105
336,142,41,93
338,156,39,86
337,150,43,88
335,150,44,89
337,149,47,91
334,148,47,95
337,148,48,98
335,146,47,96
337,145,49,97
334,145,47,97
334,139,52,84
336,136,61,73
323,136,69,105
305,134,94,111
282,136,124,107
267,135,143,113
260,133,152,115
255,132,157,114
260,132,165,112
268,131,152,111
281,129,132,113
289,126,117,112
304,121,93,115
302,127,91,110
284,138,93,102
277,87,72,153
312,73,71,149
302,89,70,117
295,84,76,113
292,99,84,109
299,126,84,92
288,124,95,86
284,114,95,93
293,72,82,130
299,67,70,110
305,59,72,141
310,89,75,112
279,101,77,134
274,135,88,109
279,130,98,113
278,136,98,109
278,153,71,93
283,145,82,97
322,131,108,65
330,120,115,105
332,120,119,114
310,127,136,113
307,132,145,111
292,135,161,114
290,133,164,120
286,135,162,122
285,135,149,125
285,138,160,122
287,137,165,123
290,138,164,119
298,138,157,118
299,138,157,117
299,140,155,119
293,142,160,121
294,145,154,121
283,146,160,122
279,146,160,126
267,151,165,125
257,154,172,124
254,153,168,118
252,157,173,116
249,156,141,113
254,159,152,115
259,156,163,117
260,149,166,124
264,147,166,121
268,153,153,120
272,150,158,122
290,155,151,112
288,154,156,116
290,152,153,116
320,152,137,117
300,149,156,117
322,151,134,114
308,151,147,116
306,151,152,114
302,149,158,116
301,151,159,113
301,148,163,115
303,147,164,114
289,143,178,116
316,139,159,117
325,136,132,114
335,132,127,114
345,128,114,115
365,121,149,118
386,115,155,119
392,106,157,130
413,100,181,141
431,92,160,136
444,93,159,145
438,90,185,145
431,81,201,152
419,96,216,134
397,115,182,119
390,132,132,110
386,133,140,98
392,132,143,104
381,133,136,108
381,132,160,108
379,134,137,110
368,134,150,109
367,134,141,107
368,134,157,106
488,108,148,119
481,104,155,122
494,103,139,121
493,106,134,117
487,105,135,120
476,106,143,122
445,112,164,126
384,114,200,123
381,110,197,125
385,110,204,121
394,112,167,119
393,117,158,117
384,121,158,114
379,122,152,119
374,124,165,117
415,125,122,122
369,130,149,116
368,129,157,118
383,127,144,117
384,124,140,122
370,125,156,122
367,125,164,121
367,126,157,121
363,126,157,122
360,125,161,121
353,126,169,121
347,128,177,118
338,125,175,117
336,123,174,119
323,126,213,121
305,127,175,116
306,126,177,118
288,127,169,121
289,125,190,119
421,121,144,118
408,123,150,113
436,122,136,113
437,121,132,114
443,122,135,114
443,120,136,115
448,120,134,117
447,120,134,116
449,120,135,117
450,120,136,117
450,122,136,116
449,122,133,114
447,123,133,112
450,122,130,110
450,122,128,108
455,122,120,110
453,121,120,112
451,122,120,112
451,121,119,114
451,122,119,113
449,122,119,114
447,121,120,115
445,121,121,114
448,124,117,112
445,125,120,111
444,130,118,107
445,130,115,105
447,130,112,109
448,135,107,105
451,135,97,105
452,133,97,105
451,136,99,102
451,129,96,107
450,136,99,103
452,130,99,106
452,132,102,100
453,131,99,105
446,133,106,103
443,129,109,110
288,137,124,101
305,124,118,119
315,139,118,105
309,135,119,107
296,132,133,112
294,137,135,109
286,135,137,114
285,139,137,113
281,135,140,116
430,133,131,111
425,136,132,111
424,139,137,111
424,141,139,111
423,143,134,110
422,145,139,110
422,147,137,109
423,149,140,109
427,150,134,108
428,152,134,109
417,151,146,109
427,153,143,110
419,154,147,110
423,154,143,113
424,152,149,117
305,149,145,110
302,148,149,112
306,148,151,113
307,149,147,113
309,149,145,113
311,149,144,116
311,151,136,112
310,152,149,110
306,153,143,111
442,157,125,113
430,154,137,111
438,155,127,109
424,156,139,112
440,156,129,112
418,154,140,116
408,154,168,120
419,152,132,121
421,151,142,122
420,149,130,120
419,144,135,116
419,137,129,119
422,132,121,112
428,129,139,116
423,127,149,118
438,123,138,122
446,122,139,117
450,120,158,116
462,121,164,122
466,122,166,121
477,122,161,121
483,125,158,122
490,130,157,124
491,128,157,129
496,135,164,126
294,135,141,117
292,134,148,113
297,132,147,114
290,130,159,113
299,128,154,115
290,124,168,117
310,124,153,110
328,121,139,115
327,118,148,119
333,113,147,116
343,109,139,115
346,104,141,118
347,100,148,115
350,97,145,115
362,88,145,119
369,81,147,119
374,76,151,119
382,72,152,120
389,70,156,117
395,66,154,115
402,65,160,118
405,48,164,128
409,51,156,134
413,50,154,129
422,68,154,129
418,59,146,118
420,53,166,126
421,64,147,118
419,59,145,124
423,58,140,123
427,61,138,122
423,61,145,123
424,60,144,123
424,63,138,119
426,60,147,124
426,69,146,115
425,64,141,117
420,66,146,120
415,69,145,117
410,108,154,85
405,88,156,103
288,150,173,132
286,150,177,131
292,150,173,132
285,153,184,127
288,149,186,127
308,149,185,128
306,148,174,123
319,148,172,123
332,148,160,123
341,146,151,114
348,145,148,115
358,146,140,114
367,147,132,111
372,147,133,105
372,145,133,104
374,144,135,105
373,143,137,105
372,141,140,107
372,139,146,113
371,140,148,120
369,137,143,123
370,132,147,126
372,132,143,125
375,132,139,122
376,133,145,117
376,132,143,113
376,133,139,109
374,136,142,106
374,136,136,100
373,139,135,102
368,140,140,100
366,140,138,102
357,138,144,105
354,137,145,116
352,135,141,119
349,134,144,120
347,135,143,122
346,137,145,122
345,139,144,117
342,143,144,119
344,148,149,116
342,146,145,112
341,149,151,109
338,145,150,109
340,147,151,108
339,146,152,110
339,149,151,110
337,147,152,111
337,148,148,111
335,149,146,112
333,151,151,111
334,152,145,111
330,153,150,105
331,151,150,107
332,150,144,110
329,150,151,112
333,147,140,113
331,148,145,114
329,147,145,113
330,144,139,116
333,144,137,118
330,145,140,115
333,143,140,117
328,141,138,117
321,140,153,115
334,139,136,118
321,138,147,118
333,140,140,116
331,139,135,115
322,138,153,118
337,133,129,118
328,134,140,118
335,131,133,119
327,131,139,120
339,128,126,120
333,128,129,119
335,126,126,120
334,125,127,120
334,124,129,119
331,124,133,121
330,124,133,121
326,127,136,120
319,131,146,120
320,131,140,121
318,135,142,120
312,135,147,122
310,136,147,122
307,138,148,123
304,142,148,121
299,143,153,119
294,146,153,119
289,149,154,118
286,150,154,120
282,153,137,121
283,157,148,118
281,153,149,123
279,149,143,122
277,149,151,124
275,145,152,124
272,145,157,124
270,144,157,121
268,148,154,120
264,152,156,119
263,153,156,118
262,154,147,121
262,154,157,122
259,155,165,123
261,154,173,124
257,149,167,128
262,148,172,126
256,150,161,122
256,151,164,122
257,151,164,122
256,150,166,122
255,150,166,121
252,152,169,120
254,153,161,122
254,152,162,125
256,151,160,127
256,151,163,127
256,149,165,130
260,148,162,132
253,147,170,134
258,149,165,134
258,145,166,137
260,146,165,136
262,147,162,133
261,148,163,131
261,146,163,132
260,148,162,132
264,145,159,134
262,148,159,133
265,149,155,131
261,150,155,131
267,151,152,132
262,151,156,132
262,152,155,132
261,151,156,133
259,149,156,134
258,151,156,133
258,150,153,135
258,151,152,133
257,151,150,133
260,152,148,133
258,152,148,133
257,152,149,133
256,153,149,133
257,152,148,134
255,152,148,134
260,153,145,133
257,153,146,133
255,151,147,135
256,152,147,135
256,151,147,135
256,150,149,136
256,149,149,137
257,149,148,136
257,150,149,136
259,150,148,135
258,150,149,134
259,150,150,135
260,149,149,135
261,150,150,135
257,149,153,135
259,151,152,134
260,149,150,135
261,150,150,134
261,149,149,135
260,150,150,134
262,151,149,133
260,150,150,134
263,150,147,135
260,150,147,134
261,151,145,133
260,152,143,131
261,150,141,133
260,151,138,132
260,152,135,131
260,151,134,132
261,152,130,132
266,153,126,133
264,155,126,132
270,161,123,129
268,161,126,131
271,166,127,131
274,170,125,134
275,172,124,134
280,176,123,134
283,179,122,131
282,182,124,131
283,185,128,133
284,188,128,136
283,186,131,137
284,187,131,136
288,188,129,135
293,187,126,136
296,187,124,136
296,186,126,137
298,187,127,136
297,187,129,136
296,187,131,137
297,187,132,137
297,187,133,138
295,187,134,138
295,185,133,138
297,184,132,139
296,185,131,138
296,184,130,138
294,183,130,138
293,183,129,139
290,182,130,139
289,183,127,137
287,183,126,136
285,184,125,135
284,184,125,135
283,186,123,134
282,186,123,134
282,187,123,134
282,187,121,134
281,186,122,135
281,187,122,135
280,187,122,135
281,186,122,135
283,185,124,137
281,183,127,136
285,182,132,138
286,182,133,138
285,182,142,137
287,180,146,140
286,179,149,141
287,179,153,140
289,177,153,140
285,176,162,142
287,175,158,141
288,173,157,137
291,172,159,137
285,171,162,134
290,171,159,135
287,171,162,134
290,170,159,135
289,171,159,133
289,170,155,133
289,172,155,131
287,171,153,131
288,169,150,131
287,169,152,132
285,169,149,132
284,165,149,131
283,163,147,133
282,162,146,133
279,161,145,133
276,160,146,132
272,161,147,131
269,162,147,129
267,160,147,131
265,162,151,130
261,165,153,130
263,162,153,134
263,166,156,133
261,163,161,132
263,166,159,131
261,165,165,133
261,163,169,137
262,165,170,135
261,162,175,136
262,161,174,135
265,160,174,135
265,161,173,135
265,161,174,131
264,160,174,133
264,159,173,134
265,160,174,135
264,159,175,136
264,162,163,134
262,165,154,133
265,166,159,135
260,165,177,136
273,163,169,139
261,166,185,131
266,159,180,134
258,160,183,128
283,161,171,134
259,166,181,128
261,166,190,128
257,156,187,140
252,155,187,136
250,154,182,134
248,153,180,134
248,150,162,134
240,150,165,134
240,148,162,135
239,147,159,134
235,148,158,133
228,151,169,135
230,159,162,125
230,154,167,134
229,156,172,135
230,159,175,135
228,162,168,134
238,166,169,132
233,171,162,130
392,160,175,128
383,158,184,128
387,157,167,129
242,173,167,129
249,173,151,133
255,174,154,132
257,176,143,131
260,180,145,129
374,155,165,132
347,152,193,140
267,184,135,119
268,184,135,121
270,182,134,123
280,173,140,129
274,172,161,131
347,150,179,132
354,145,172,131
296,152,218,140
316,152,209,137
334,151,177,139
347,149,154,129
323,150,182,134
341,152,164,128
326,152,175,135
336,154,166,131
315,157,188,136
322,157,138,132
325,161,152,132
329,160,160,130
314,157,163,128
326,158,154,128
312,160,181,126
285,160,200,128
286,160,197,130
282,162,200,133
282,161,197,131
280,161,199,130
308,161,168,129
273,163,212,129
309,163,173,128
324,162,161,128
321,163,171,128
317,164,183,127
311,166,187,131
334,167,160,128
328,166,173,128
330,168,174,132
335,168,175,134
208,177,160,130
190,175,165,128
190,171,173,132
179,172,184,133
182,168,177,133
179,170,176,126
181,171,166,128
185,165,158,128
184,169,158,123
184,168,169,128
174,172,181,132
178,170,180,130
191,172,165,134
194,166,161,136
203,171,159,132
201,171,167,130
230,172,161,131
221,174,171,127
234,174,162,125
257,171,151,124
267,167,154,125
276,161,158,131
279,161,167,127
292,157,168,130
297,156,170,130
308,154,168,127
317,150,161,131
322,145,162,133
326,142,165,136
329,138,175,145
342,136,166,144
339,134,165,144
336,135,169,143
333,135,167,139
330,135,167,140
329,135,166,143
332,136,159,146
325,140,164,149
310,139,171,151
299,144,165,142
282,154,177,136
271,164,167,129
256,172,163,127
245,178,173,121
369,171,153,122
366,170,157,126
367,168,167,130
380,167,163,130
384,169,152,119
376,170,163,122
378,168,165,121
379,169,164,119
383,169,165,122
381,171,163,125
369,172,172,124
218,178,183,131
239,180,179,120
274,164,160,132
298,151,173,141
339,141,161,143
344,128,177,145
349,133,190,148
367,113,187,160
385,109,184,155
397,105,169,157
411,103,150,141
411,106,159,141
412,108,146,136
296,175,153,119
349,157,120,127
298,173,141,118
364,126,161,149
310,151,175,142
310,147,164,145
292,156,185,130
265,158,192,128
237,168,176,136
236,171,204,141
347,168,175,133
354,168,170,129
361,166,164,130
363,170,170,129
367,171,162,130
364,172,167,130
359,174,168,124
361,175,164,127
194,172,202,136
228,167,183,138
233,167,215,126
277,158,191,127
310,146,197,139
344,139,209,147
350,125,183,144
357,112,193,159
359,103,190,166
356,102,186,171
358,93,190,179
365,93,183,177
354,95,190,180
355,90,182,170
351,93,180,184
352,102,161,153
351,107,144,148
347,140,148,134
344,166,156,125
335,157,157,131
290,150,203,137
282,149,214,141
276,147,199,142
273,154,212,139
301,161,227,131
260,162,211,126
265,167,210,125
264,169,207,123
263,171,207,125
267,169,198,127
268,169,204,129
264,170,209,125
264,170,205,124
263,170,203,124
371,168,143,122
257,173,196,124
267,167,226,127
240,168,196,124
356,169,184,122
350,169,193,125
351,164,175,126
184,158,156,139
187,154,127,141
199,146,102,139
220,146,77,133
227,138,78,138
223,133,72,148
220,139,90,139
223,131,119,133
219,132,130,131
223,136,136,125
223,135,144,124
224,135,150,122
223,132,153,124
220,131,156,128
218,133,153,129
218,136,154,128
202,134,161,130
196,136,160,128
405,146,155,122
417,144,149,124
409,144,165,123
409,141,151,125
405,140,140,125
399,142,157,123
395,137,133,126
382,138,135,123
369,138,160,123
354,137,163,122
348,134,161,123
339,130,160,123
337,129,162,123
334,128,161,123
322,129,173,121
323,127,167,122
319,127,169,122
323,127,161,123
317,127,174,123
309,127,183,122
324,130,172,121
325,129,170,123
329,132,172,122
341,132,165,124
348,135,161,125
334,134,176,130
339,135,185,126
375,136,153,119
369,137,159,123
377,138,153,120
384,138,149,122
387,140,149,123
388,141,151,124
392,143,146,123
394,145,147,121
393,145,150,121
393,147,150,121
392,145,148,123
196,145,160,135
186,147,171,133
198,145,163,138
203,145,154,139
208,148,149,141
209,149,150,144
211,150,149,146
212,153,148,148
212,155,148,145
207,154,152,147
198,155,160,145
185,152,170,146
170,155,198,139
167,158,189,137
181,155,160,135
215,145,98,136
223,132,79,145
210,142,98,139
194,141,136,127
179,143,155,125
173,147,161,124
167,147,166,129
167,148,166,127
160,149,172,131
165,153,166,124
171,151,164,126
177,150,164,127
182,147,165,130
187,144,162,131
194,145,163,129
203,144,155,128
213,144,144,127
218,142,175,127
221,142,188,130
234,142,165,122
244,141,177,123
268,141,170,117
272,141,176,112
281,133,174,121
297,133,165,122
316,135,161,126
319,132,152,110
317,141,152,122
318,138,157,117
310,136,173,99
315,146,162,116
308,143,168,121
308,144,178,120
331,142,165,120
302,145,175,119
309,141,177,119
305,147,182,119
300,145,180,118
311,142,168,119
308,147,166,116
303,144,171,118
314,141,161,119
316,142,168,119
366,139,134,126
317,143,168,121
306,141,175,126
307,142,167,117
318,140,162,118
312,142,168,127
313,144,172,117
309,149,166,123
307,139,168,131
305,143,173,133
309,128,175,147
308,132,169,117
308,164,154,121
304,148,165,126
312,135,164,114
304,157,162,121
303,159,157,132
298,154,173,120
341,88,140,122
336,89,134,129
347,86,136,109
333,82,138,117
333,90,131,122
338,78,135,128
286,179,167,118
342,60,150,130
342,61,145,129
349,58,138,128
350,56,132,129
347,53,138,130
350,47,139,127
335,38,160,129
332,30,152,130
331,32,157,124
334,35,150,123
275,172,164,133
271,176,162,127
269,174,162,123
270,179,164,122
267,174,161,132
269,173,161,131
270,172,161,129
271,171,161,126
272,164,164,134
274,161,162,135
284,148,157,134
320,56,173,142
306,64,144,159
316,74,146,143
314,77,143,185
298,90,148,166
297,100,168,150
312,116,166,135
324,118,157,134
319,124,169,135
326,128,164,138
309,131,178,140
343,130,151,134
333,133,153,137
314,120,162,151
319,125,160,138
317,121,147,139
332,133,152,133
307,117,167,145
316,125,164,134
318,122,169,134
321,120,163,132
327,118,162,135
326,112,162,141
318,107,171,144
330,109,168,141
326,104,172,145
238,99,127,139
233,105,147,134
237,94,146,144
239,94,148,145
233,92,152,144
237,90,148,145
238,90,144,145
238,90,145,145
238,90,145,145
241,90,148,147
238,88,150,150
243,91,147,149
238,129,141,112
241,123,135,119
249,116,142,125
243,133,139,108
244,152,134,92
235,148,158,96
244,133,145,113
226,163,137,90
221,157,154,104
206,145,165,125
194,143,163,137
180,148,180,133
163,145,195,145
392,115,150,139
398,119,164,137
405,122,141,131
405,128,158,129
407,133,151,121
411,138,163,119
402,138,160,127
200,149,169,134
186,147,184,142
191,137,206,144
212,131,206,144
228,131,227,140
269,124,202,149
294,118,191,138
319,106,176,137
327,97,172,156
339,98,169,152
307,112,203,145
308,102,186,160
302,117,180,154
327,109,178,156
324,115,171,133
269,139,218,126
228,139,244,130
199,150,236,129
177,141,192,144
157,154,224,135
150,142,215,151
150,145,200,147
159,161,191,119
169,152,206,126
197,141,186,153
216,146,169,139
230,139,154,142
258,144,132,132
288,151,106,122
292,148,100,119
374,156,180,136
258,137,149,127
242,148,157,101
238,146,159,102
226,147,174,114
224,145,195,136
222,147,190,137
227,148,177,134
226,149,178,136
228,152,172,134
229,153,170,133
230,155,168,133
232,156,167,133
231,156,169,132
229,158,165,134
223,156,166,136
220,157,164,134
213,157,165,136
211,154,167,137
205,154,174,133
203,154,175,132
199,153,174,133
198,152,178,134
198,152,177,137
199,152,177,133
200,150,178,137
201,149,182,139
205,150,183,135
207,151,174,135
209,151,177,135
211,152,174,133
211,153,175,131
211,153,175,132
210,152,177,133
209,152,181,131
208,153,184,131
207,152,185,132
207,151,185,134
206,152,187,132
203,153,191,133
197,152,196,133
195,153,194,135
193,154,193,135
182,151,192,139
180,147,186,142
188,151,172,144
198,149,149,143
229,150,104,140
234,152,81,158
247,147,91,133
240,150,124,125
230,147,154,125
231,150,166,121
225,146,181,125
228,144,175,126
230,142,176,126
230,143,181,123
239,144,176,123
240,144,168,120
237,144,179,124
245,145,165,120
241,144,162,122
244,144,172,121
246,142,157,121
245,144,169,120
244,146,123,116
260,146,155,118
243,144,164,123
234,149,173,122
239,150,166,117
240,152,158,118
228,151,169,122
222,151,172,126
222,146,171,127
223,148,173,130
228,147,162,132
231,143,126,133
215,149,95,122
217,149,113,114
221,142,146,128
220,146,164,127
217,144,172,130
222,145,172,127
217,143,176,127
218,144,169,130
225,141,175,132
227,141,171,130
229,143,160,125
229,143,164,125
235,142,160,122
232,145,162,121
384,137,156,129
226,142,160,128
231,143,176,125
220,141,172,121
231,146,176,117
227,142,166,123
232,141,167,123
236,139,160,123
237,137,157,125
256,140,130,121
265,141,118,120
273,138,107,122
278,141,97,118
290,143,85,120
400,140,90,110
311,162,51,105
303,175,66,94
311,153,74,109
320,171,79,111
327,151,96,113
387,154,87,99
391,156,79,95
395,154,76,89
393,155,75,104
383,151,57,88
394,152,62,83
393,155,71,81
387,152,81,92
388,155,92,92
386,153,108,89
376,154,115,96
266,154,105,121
250,150,124,119
238,154,140,115
229,156,154,112
217,156,169,121
206,154,182,127
200,154,188,124
200,154,183,123
201,154,181,121
200,153,173,118
205,153,175,117
215,153,166,116
215,151,165,116
224,150,153,118
236,149,142,119
247,150,115,116
258,146,102,118
266,148,87,119
272,150,81,112
277,150,76,112
277,146,85,115
275,148,89,111
263,147,128,106
249,145,162,104
242,145,154,102
240,138,146,107
284,141,85,114
279,139,88,113
272,145,123,118
243,146,164,121
230,150,173,124
226,148,168,130
228,150,150,128
245,147,109,129
277,151,73,119
241,148,117,126
230,140,141,126
241,145,146,120
259,144,117,122
263,145,107,120
251,145,126,115
236,143,161,114
219,148,141,102
229,148,118,106
248,147,100,108
263,151,79,125
244,169,101,117
227,174,128,123
204,174,149,125
175,181,171,115
153,178,180,122
161,176,176,115
155,175,182,119
177,171,171,130
180,168,195,137
221,161,165,130
273,143,103,142
273,143,111,116
424,164,133,127
435,166,149,129
248,110,147,79
279,92,118,94
327,86,88,119
424,163,111,122
393,163,153,122
388,160,166,126
370,160,174,129
358,71,167,104
392,39,135,129
389,37,148,157
384,53,159,151
382,62,170,139
356,92,179,145
345,110,188,175
341,127,188,151
320,139,185,137
290,144,203,132
284,146,197,140
245,149,208,142
226,156,192,130
212,152,193,132
211,153,189,136
221,156,181,123
234,156,171,128
278,153,130,124
314,146,93,134
386,172,165,132
389,171,166,126
392,170,163,117
391,171,169,116
394,170,157,119
399,170,156,116
399,170,148,116
406,173,145,115
415,175,130,114
338,112,134,117
324,120,128,112
328,119,135,102
339,126,121,94
353,113,79,107
331,115,107,126
282,123,167,124
289,127,168,128
279,140,173,129
402,171,164,124
403,173,161,129
405,175,162,126
404,178,164,123
405,171,170,129
396,169,175,126
233,167,183,125
232,168,172,129
225,164,163,127
225,170,148,123
210,167,157,121
200,160,165,131
201,163,171,132
199,162,178,129
205,161,184,132
205,160,187,137
212,164,185,136
218,173,193,117
231,178,190,130
235,165,200,142
258,161,176,139
266,150,176,142
273,158,170,139
282,159,165,136
283,173,163,120
284,161,168,130
348,122,175,137
279,163,167,135
384,123,157,120
388,122,149,110
242,172,187,132
230,171,191,136
216,168,188,131
204,177,198,126
193,171,198,133
188,165,196,139
392,125,181,129
398,130,156,141
186,172,175,133
189,165,170,141
196,171,176,132
205,165,182,128
225,158,184,134
234,153,197,136
277,148,174,133
292,141,186,127
325,128,175,128
354,119,171,133
357,115,176,169
358,114,187,189
369,118,163,142
366,121,167,120
354,132,161,124
342,134,173,150
330,143,192,136
292,157,219,135
373,159,155,134
376,164,154,127
219,161,188,126
201,153,186,137
189,159,175,130
193,155,161,130
192,155,134,130
198,163,153,118
209,163,167,118
229,161,153,123
237,155,151,123
274,160,133,115
297,154,175,129
324,149,207,131
332,142,191,119
350,137,173,123
369,130,166,125
367,132,157,124
362,135,160,133
352,138,169,118
337,140,182,122
319,140,169,119
287,145,178,118
294,146,187,129
246,148,185,136
261,148,156,135
229,148,173,133
233,142,173,137
229,142,167,136
250,145,154,131
264,147,169,132
278,150,161,134
299,157,144,127
286,147,182,122
313,143,183,123
331,143,179,119
349,138,192,124
362,132,182,128
370,133,165,126
365,135,143,121
353,138,149,120
340,146,166,120
326,152,208,120
284,152,196,126
276,162,178,119
255,159,179,121
236,149,163,135
218,152,177,131
199,155,176,126
200,158,178,117
215,146,176,138
205,150,182,136
215,152,196,132
225,164,197,119
236,153,187,127
249,155,183,126
270,156,160,125
274,151,156,128
276,151,153,127
273,157,172,123
263,155,178,124
268,154,179,130
264,157,177,130
263,160,180,125
265,158,171,129
261,158,179,129
260,155,178,136
251,161,190,134
260,168,183,125
268,167,174,126
275,169,162,126
264,171,184,125
267,170,171,126
271,170,175,127
276,167,161,131
279,169,162,128
283,166,156,129
286,166,152,130
288,167,147,126
290,167,140,121
295,169,144,114
298,169,136,114
294,170,144,123
287,170,171,122
282,160,178,132
282,160,175,132
292,164,166,127
307,169,137,121
315,171,124,121
313,172,127,124
310,171,144,123
302,167,156,127
297,170,173,125
294,172,197,133
279,167,194,131
280,167,196,134
285,171,179,129
283,167,181,133
278,164,187,135
283,165,165,131
286,165,176,133
279,165,171,133
282,167,163,131
282,165,162,127
281,166,163,126
278,163,160,129
267,166,169,125
275,166,160,125
267,168,163,123
262,164,164,129
252,165,169,131
245,166,172,132
236,172,180,130
236,175,173,117
233,175,173,116
229,172,171,113
224,176,171,116
226,171,168,122
223,172,169,122
224,172,172,122
225,172,169,117
224,174,175,115
228,170,170,118
231,169,171,120
235,172,171,123
233,174,179,121
234,180,183,117
241,170,178,126
239,165,187,132
239,168,190,122
256,167,175,128
268,164,164,134
272,166,153,128
283,164,149,126
295,164,130,125
310,163,115,124
320,166,115,120
324,163,132,121
325,159,144,122
324,157,169,125
328,155,172,124
340,154,182,127
328,155,170,116
337,157,190,124
348,159,162,124
359,159,191,132
352,156,155,117
344,153,152,119
332,154,160,123
331,154,193,131
304,153,173,129
285,154,191,131
281,155,186,133
276,153,179,132
277,153,170,131
272,156,167,127
258,161,184,119
256,160,189,122
251,154,192,129
249,153,190,133
258,154,183,130
250,163,189,119
250,161,194,126
266,162,182,130
251,162,192,130
253,163,188,125
261,160,183,131
244,163,200,136
236,166,208,125
238,165,209,127
239,169,207,128
250,171,194,132
257,171,180,141
251,172,187,135
230,167,207,137
226,165,207,135
227,161,201,149
225,162,182,150
218,165,197,149
216,160,176,146
208,165,205,142
198,162,210,150
200,162,221,133
194,160,196,151
193,165,220,147
186,165,216,138
186,157,209,157
190,156,213,156
193,158,204,153
201,157,185,154
213,158,171,159
216,160,168,155
217,161,162,155
217,163,164,155
202,168,180,156
190,173,195,156
186,173,201,159
168,180,228,151
163,175,227,158
156,176,239,164
154,176,263,168
141,178,221,166
135,163,225,169
135,169,222,167
129,161,225,174
143,163,218,170
138,158,235,165
147,162,239,152
168,154,218,167
167,150,219,163
188,154,203,156
204,147,190,158
228,147,166,158
231,145,169,157
243,148,159,154
252,147,153,151
251,153,157,145
243,156,169,146
239,157,176,151
234,161,182,160
222,167,195,154
212,175,200,154
197,180,208,155
190,182,206,157
187,186,189,156
189,193,171,150
184,193,173,149
179,196,182,148
171,195,190,155
165,196,196,154
171,192,191,161
187,194,177,160
190,202,179,152
183,191,190,157
161,194,226,149
164,192,237,159
178,190,238,159
199,188,226,161
402,206,189,164
389,203,195,165
234,182,216,161
251,178,210,161
259,176,205,158
264,175,206,159
265,177,209,162
269,171,205,164
263,177,207,151
260,173,208,129
256,178,200,126
239,180,205,131
226,185,215,154
218,182,207,160
197,189,218,153
189,187,205,152
186,190,195,151
180,190,193,157
175,193,190,157
180,196,173,156
174,197,165,154
169,203,159,150
153,201,175,152
139,205,190,153
134,200,207,161
140,200,213,158
169,200,201,155
192,203,196,148
202,199,204,150
229,192,194,153
255,190,196,153
272,182,213,147
293,173,213,145
327,170,180,135
341,166,173,136
362,163,171,139
363,168,188,128
359,163,176,134
340,170,164,128
328,173,178,123
311,179,187,125
289,182,177,130
273,184,170,138
245,187,176,136
214,190,169,143
193,178,163,153
161,182,163,144
142,194,155,130
128,190,151,123
117,185,130,130
107,182,135,131
108,181,132,133
107,180,133,134
110,184,131,130
118,189,132,126
132,196,167,124
152,191,175,139
177,193,185,142
199,196,193,137
225,190,211,141
270,182,194,147
280,171,217,141
329,160,193,144
357,148,167,133
379,134,167,162
401,124,161,141
402,122,166,144
394,121,173,145
401,128,178,133
381,133,166,137
387,139,121,133
373,157,114,128
322,171,140,129
263,180,176,134
242,183,183,138
209,193,190,134
193,194,181,136
188,197,162,138
156,192,169,142
135,197,167,127
120,184,165,134
106,187,153,132
100,180,160,139
98,180,162,141
101,183,164,137
104,186,185,136
119,193,196,135
