0.002909
0.032072
0.019667
0.033685
0.029993
0.026309
0.032706
0.027052
0.031384
0.033255
0.034446
0.032584
0.032514
0.035578
0.026942
0.035488
0.033965
0.033077
0.032953
0.032133
0.033079
0.019504
0.033572
0.031862
0.027832
0.032769
0.032878
0.016003
0.033073
0.034208
0.032504
0.025427
0.032044
0.032679
0.024839
0.032143
0.032001
0.031444
0.027174
0.032542
0.031633
0.032818
0.032355
0.031498
0.033294
0.033890
0.031895
0.032799
0.019390
0.030860
0.027513
0.031308
0.019346
0.033251
0.022575
0.034573
0.034252
0.029320
0.027534
0.031245
0.032419
0.032522
0.034018
0.032270
0.036569
0.033607
0.026421
0.032005
0.032934
0.020175
0.032153
0.032570
0.027531
0.033103
0.032440
0.031420
0.025276
0.033388
0.024937
0.034452
0.033021
0.029613
0.032113
0.032439
0.024723
0.034506
0.034163
0.017819
0.032875
0.032964
0.031283
0.032214
0.028707
0.023559
0.031747
0.032239
0.034096
0.035011
0.032736
0.028026
0.027856
0.032337
0.032915
0.031057
0.033036
0.029346
0.032823
0.033309
0.032976
0.023132
0.032782
0.028647
0.032015
0.023174
0.026163
0.031587
0.023426
0.033072
0.032300
0.030906
0.017127
0.032297
0.034379
0.033551
0.031996
0.034907
0.032063
0.033239
0.027125
0.034969
0.032387
0.016334
0.016731
0.028310
0.032217
0.016855
0.031421
0.031804
0.033329
0.034931
0.027003
0.033254
0.033034
0.034822
0.024172
0.028183
0.033198
0.028942
0.032699
0.031813
0.033575
0.032361
0.023953
0.017142
0.016319
0.023511
0.032432
0.032256
0.032827
0.023548
0.032166
0.033397
0.033475
0.033934
0.032315
0.017941
0.032898
0.034783
0.035360
0.029158
0.031835
0.032757
0.022958
0.027997
0.032027
0.030303
0.033356
0.026404
0.029052
0.036776
0.025387
0.033526
0.030781
0.027914
0.031781
0.033170
0.034441
0.023093
0.027210
0.032737
0.028952
0.032801
0.032432
0.027850
0.032991
0.033484
0.034717
0.032616
0.036255
0.031779
0.024554
0.033810
0.031708
0.033181
0.031101
0.032444
0.024144
0.031688
0.033306
0.016342
0.033195
0.033504
0.027585
0.032366
0.033059
0.023043
0.027724
0.033113
0.032946
0.035510
0.035395
0.020601
0.032944
0.033696
0.029462
0.033417
0.032840
0.027253
0.031829
0.031209
0.032575
0.032934
0.032320
0.035183
0.032862
0.033301
0.033012
0.033542
0.035615
0.026771
0.032679
0.029720
0.032814
0.033015
0.032680
0.027305
0.031440
0.026428
0.031864
0.033337
0.035018
0.019663
0.032566
0.035145
0.033270
0.031645
0.026228
0.032320
0.032328
0.021551
0.034415
0.023776
0.025690
0.031153
0.032752
0.031984
0.033107
0.031707
0.018888
0.030913
0.031253
0.032796
0.021824
0.019523
0.030075
0.032961
0.032439
0.032025
0.032263
0.018674
0.019168
0.031735
0.032523
0.032627
0.032163
0.033271
0.017131
0.033759
0.032712
0.029842
0.032168
0.034029
0.029197
0.032475
0.032171
0.031423
0.032565
0.033787
0.031440
0.035351
0.031137
0.032929
0.025326
0.029292
0.031615
0.015965
0.022662
0.031619
0.035736
0.031867
0.019798
0.030668
0.032058
0.033545
0.016075
0.035112
0.024240
0.034468
0.034615
0.032583
0.032897
0.032552
0.032722
0.033015
0.032587
0.034780
0.032633
0.032531
0.033258
0.033128
0.033266
0.018596
0.032334
0.020078
0.035094
0.017831
0.028661
0.033422
0.035361
0.031261
0.033251
0.035459
0.036154
0.022693
0.033770
0.032076
0.034025
0.028852
0.029753
0.028869
0.031564
0.032658
0.022996
0.030858
0.034710
0.032031
0.030333
0.033106
0.034305
0.033354
0.017381
0.033776
0.030083
0.032887
0.034398
0.032507
0.033942
0.026537
0.022308
0.034370
0.026232
0.031682
0.032909
0.032319
0.029003
0.033148
0.031726
0.032051
0.033139
0.026650
0.028491
0.034089
0.024153
0.031642
0.032963
0.017462
0.022380
0.028052
0.032399
0.022963
0.016469
0.025460
0.032688
0.029240
0.035191
0.016641
0.032246
0.026124
0.033364
0.031952
0.032881
0.024973
0.025133
0.033401
0.025716
0.032160
0.024767
0.033656
0.022356
0.033836
0.033082
0.032740
0.033082
0.024587
0.032001
0.028124
0.036236
0.027421
0.033806
0.019824
0.032494
0.032612
0.028472
0.032180
0.026820
0.034147
0.026356
0.032510
0.026509
0.033702
0.029805
0.034747
0.032981
0.033084
0.032258
0.033868
0.019992
0.027839
0.025543
0.021274
0.033257
0.033152
0.032268
0.032735
0.034252
0.027788
0.033269
0.031986
0.034305
0.032963
0.030419
0.028383
0.023431
0.031395
0.032544
0.034006
0.032068
0.031719
0.033295
0.034525
0.017677
0.032841
0.032384
0.033432
0.033756
0.032966
0.031667
0.029301
0.032871
0.025386
0.025225
0.033242
0.032600
0.031847
0.032359
0.028579
0.032522
0.019695
0.032255
0.024669
0.032188
0.033248
0.031309
0.028118
0.032712
0.032223
0.032961
0.033375
0.028516
0.032461
0.032250
0.032296
0.032036
0.032446
0.021347
0.031931
0.024640
0.032553
0.032830
0.035136
0.033597
0.033336
0.020152
0.031979
0.033155
0.032208
0.033857
0.029647
0.035016
0.033883
0.027843
0.033885
0.031897
0.032231
0.033916
0.032450
0.032802
0.034541
0.029825
0.018085
0.028572
0.032647
0.027974
0.029961
0.035946
0.033671
0.029533
0.017158
0.026482
0.034483
0.033277
0.030673
0.036572
0.033047
0.033180
0.029938
0.025575
0.016627
0.025146
0.032801
0.033892
0.024941
0.034145
0.032052
0.033794
0.034028
0.034637
0.034212
0.027245
0.029649
0.032330
0.024952
0.032728
0.018582
0.018917
0.026213
0.033226
0.020082
0.035339
0.032830
0.027863
0.031966
0.028482
0.026130
0.032553
0.031909
0.032570
0.034010
0.034208
0.033772
0.025978
0.025200
0.030902
0.033913
0.032378
0.027620
0.030384
0.022731
0.033333
0.033789
0.033693
0.032638
0.032598
0.032890
0.016904
0.024311
0.033561
0.034274
0.032733
0.035683
0.031708
0.032771
0.033333
0.032523
0.026229
0.031992
0.026207
0.028661
0.021573
0.033093
0.032764
0.034040
0.021019
0.032691
0.031416
0.032271
0.028155
0.033111
0.032115
0.033528
0.033392
0.032306
0.034059
0.032473
0.032985
0.021759
0.032840
0.032367
0.033534
0.033338
0.024401
0.033713
0.032904
0.025329
0.033196
0.031512
0.033570
0.033587
0.032778
0.020335
0.029677
0.028099
0.020950
0.028968
0.032508
0.033179
0.023696
0.027490
0.031336
0.026372
0.030568
0.033149
0.034000
0.032743
0.016762
0.019943
0.035528
0.029747
0.028688
0.022917
0.033863
0.034054
0.034291
0.020673
0.017461
0.019125
0.019697
0.033631
0.027233
0.032667
0.031606
0.025334
0.032147
0.031977
0.021696
0.034644
0.029392
0.031399
0.034198
0.032149
0.032541
0.031690
0.035625
0.034337
0.033875
0.033400
0.032548
0.032841
0.031679
0.032727
0.025653
0.035890
0.029496
0.031021
0.034560
0.033423
0.026207
0.027159
0.034189
0.017642
0.032114
0.022911
0.021892
0.032958
0.020983
0.028280
0.032800
0.034015
0.027316
0.028776
0.033619
0.033064
0.033548
0.034355
0.033176
0.035423
0.035607
0.033929
0.032762
0.027211
0.032688
0.030149
0.034202
0.032697
0.033274
0.031866
0.030966
0.028670
0.033336
0.034271
0.033749
0.034128
0.022455
0.032068
0.033374
0.033624
0.032717
0.033803
0.033432
0.033690
0.031842
0.033152
0.023363
0.032873
0.033501
0.032929
0.029787
0.033088
0.033588
0.032735
0.032528
0.032536
0.032135
0.033222
0.035585
0.023255
0.034982
0.030462
0.032088
0.033642
0.026538
0.024597
0.031989
0.025447
0.033364
0.033687
0.032336
0.033198
0.032580
0.024178
0.031016
0.032602
0.033095
0.028307
0.033045
0.021937
0.032681
0.032621
0.031466
0.017028
0.017295
0.032861
0.032675
0.032442
0.033684
0.032023
0.032348
0.032502
0.017009
0.017585
0.016569
0.035048
0.033841
0.033465
0.024144
0.032917
0.032544
0.017481
0.016520
0.016401
0.021359
0.033315
0.033992
0.030758
0.036103
0.032461
0.033701
0.029117
0.033513
0.033449
0.032272
0.027927
0.034511
0.032556
0.034059
0.032759
0.029655
0.032999
0.028507
0.034305
0.033729
0.034413
0.033657
0.029035
0.033991
0.034438
0.031759
0.027996
0.028637
0.033273
0.031989
0.032184
0.033102
0.033550
0.032461
0.032226
0.024504
0.029167
0.032894
0.025083
0.032109
0.031807
0.033178
0.022092
0.018569
0.034365
0.024236
0.031522
0.030858
0.034262
0.032565
0.033698
0.033143
0.033902
0.033158
0.016856
0.032008
0.026954
0.036848
0.027928
0.035552
0.038353
0.033546
0.034245
0.034328
0.034449
0.034093
0.024182
0.034993
0.031343
0.033340
0.024227
0.033052
0.033413
0.033498
0.033000
0.030630
0.032788
0.032859
0.031109
0.033349
0.034361
0.027332
0.032876
0.031592
0.034447
0.033087
0.029029
0.030466
0.028447
0.033196
0.025291
0.020523
0.032816
0.020672
0.025174
0.034206
0.030434
0.033098
0.031476
0.035437
0.025381
0.032942
0.033808
0.033859
0.033943
0.029254
0.033006
0.033813
0.033990
0.030205
0.020483
0.033448
0.032724
0.033339
0.033056
0.036787
0.024738
0.033698
0.033732
0.031923
0.025312
0.028123
0.022548
0.035329
0.033072
0.033070
0.034525
0.033751
0.024793
0.030301
0.020941
0.031054
0.022829
0.033926
0.033866
0.021120
0.033497
0.026057
0.035385
0.034051
0.017271
0.034420
0.034202
0.028800
0.031165
0.032268
0.023196
0.032486
0.032583
0.032183
0.034798
0.033197
0.033007
0.034505
0.031811
0.033647
0.016406
0.035697
0.026764
0.032335
0.032154
0.034136
0.032631
0.033794
0.026720
0.032214
0.034282
0.038008
0.029833
0.032753
0.033777
0.032203
0.032823
0.019539
0.033305
0.032874
0.033285
0.025410
0.032658
0.032150
0.033233
0.028285
0.034041
0.032349
0.028058
0.020950
0.033322
0.033363
0.028816
0.032990
0.033100
0.033149
0.026899
0.029933
0.032708
0.033440
0.024472
0.032796
0.034449
0.024035
0.030817
0.033404
0.032434
0.033669
0.030750
0.033978
0.029668
0.028544
0.028613
0.033583
0.031660
0.033011
0.032007
0.017439
0.035991
0.023252
0.022900
0.034003
0.033097
0.031669
0.030025
0.033626
0.033840
0.027914
0.032330
0.034020
0.033857
0.034346
0.024967
0.031966
0.027188
0.034874
0.034316
0.032847
0.033875
0.031972
0.032835
0.029268
0.032434
0.033000
0.031832
0.031464
0.034809
0.032110
0.022052
0.033220
0.032367
0.028454
0.026117
0.033279
0.034007
0.032577
0.032317
0.032016
0.026812
0.033946
0.032487
0.029667
0.031947
0.033793
0.034511
0.025350
0.032512
0.031440
0.033812
0.034288
0.017660
0.018785
0.029393
0.033545
0.033959
0.029048
0.021150
0.032724
0.029543
0.033204
0.028633
0.032311
0.018090
0.016421
0.028776
0.033484
0.031438
0.033914
0.033591
0.034079
0.016300
0.031791
0.024140
0.031123
0.021698
0.030816
0.035826
0.033999
0.032114
0.034290
0.033623
0.022572
0.032702
0.034250
0.034663
0.036234
0.021340
0.032821
0.033110
0.032478
0.032452
0.027133
0.033121
0.032650
0.032878
0.034338
0.033165
0.030348
0.033740
0.031954
0.031909
0.035191
0.032907
0.030471
0.026486
0.032430
0.033364
0.033644
0.016572
0.025652
0.032912
0.030490
0.033723
0.022599
0.033032
0.032118
0.033445
0.029970
0.033254
0.033357
0.032542
0.033046
0.033245
0.025487
0.019502
0.032987
0.035048
0.031163
0.034033
0.028458
0.035479
0.034153
0.022227
0.026736
0.034920
0.034580
0.025793
0.033359
0.022825
0.032665
0.030011
0.032175
0.034527
0.033034
0.030401
0.022686
0.033363
0.034062
0.029104
0.032833
0.033061
0.019147
0.019578
0.016071
0.016978
0.016396
0.034457
0.034049
0.034584
0.025589
0.032932
0.032573
0.028593
0.033721
0.026399
0.034029
0.024769
0.018710
0.034903
0.021752
0.032793
0.033986
0.021806
0.032666
0.028534
0.034045
0.021427
0.033067
0.032320
0.034935
0.026512
0.030383
0.033489
0.033980
0.034849
0.029187
0.033118
0.032014
0.032620
0.025377
0.032096
0.027985
0.032397
0.034730
0.024328
0.033651
0.034094
0.026134
0.033853
0.033722
0.032856
0.027159
0.033080
0.033516
0.033178
0.033777
0.021818
0.033005
0.025249
0.035149
0.034386
0.034387
0.024834
0.032283
0.033555
0.032357
0.025174
0.030169
0.031288
0.033276
0.033234
0.032183
0.016466
0.016406
0.033489
0.033535
0.032021
0.031198
0.034486
0.032567
0.033279
0.021546
0.032964
0.034034
0.029803
0.034045
0.032533
0.033978
0.032290
0.031942
0.033044
0.033656
0.032326
0.034502
0.026350
0.034849
0.033097
0.027450
0.034836
0.033193
0.018646
0.032325
0.033623
0.027284
0.032443
0.029078
0.034683
0.032907
0.032710
0.032017
0.037964
0.034074
0.031761
0.034141
0.023258
0.032469
0.034087
0.035299
0.034105
0.032420
0.033182
0.029725
0.024502
0.034805
0.034914
0.037352
0.033320
0.035329
0.033928
0.033631
0.034767
0.033955
0.030751
0.034561
0.020964
0.020237
0.033614
0.027392
0.033566
0.025853
0.033165
0.033019
0.036787
0.035392
0.032596
0.035342
0.021343
0.030324
0.035427
0.027624
0.035298
0.026457
0.017655
0.033083
0.034082
0.025930
0.032332
0.033429
0.032752
0.025963
0.035733
0.035894
0.025368
0.034168
0.024373
0.033808
0.031614
0.024263
0.033093
0.030505
0.032072
0.029465
0.032929
0.033060
0.032428
0.032357
0.032697
0.033046
0.033554
0.016886
0.031177
0.031945
0.027587
0.034405
0.032120
0.033633
0.020459
0.019085
0.026773
0.033702
0.032365
0.034978
0.031584
0.038556
0.020108
0.032566
0.032293
0.031791
0.025676
0.034254
0.034295
0.029154
0.032519
0.031802
0.032476
0.034546
0.034485
0.035595
0.032943
0.033594
0.033971
0.024909
0.034031
0.016534
0.033737
0.029577
0.034110
0.032057
0.032027
0.035182
0.031701
0.031551
0.028229
0.035089
0.018435
0.033247
0.033302
0.032917
0.031023
0.032946
0.018852
0.033938
0.025665
0.033976
0.031966
0.022087
0.032992
0.028851
0.031669
0.031566
0.031595
0.032263
0.032758
0.028635
0.020605
0.032701
0.031646
0.033215
0.019666
0.033225
0.033268
0.033813
0.029026
0.033940
0.033020
0.032012
0.032834
0.031515
0.030989
0.031874
0.026560
0.034370
0.032560
0.033253
0.028462
0.032109
0.034883
0.029662
0.034756
0.029410
0.033291
0.032282
0.031477
0.029543
0.032741
0.033167
0.033120
0.033395
0.024795
0.032613
0.033027
0.033149
0.033438
0.031887
0.024538
0.036394
0.034383
0.028901
0.017917
0.016980
0.016825
0.017315
0.033235
0.032763
0.032278
0.032170
0.025136
0.033014
0.028266
0.032893
0.017507
0.030660
0.032347
0.026961
0.035045
0.029841
0.035553
0.025260
0.034719
0.033861
0.033035
0.028795
0.029569
0.026590
0.018920
0.017965
0.017982
0.017701
0.017277
0.019354
0.034170
0.033840
0.033218
0.030464
0.032309
0.033285
0.032490
0.033106
0.034314
0.026227
0.033796
0.020118
0.032862
0.030923
0.031858
0.032740
0.032028
0.032828
0.028023
0.027366
0.032650
0.029521
0.033992
0.023448
0.032874
0.032512
0.016818
0.032387
0.026045
0.034961
0.032895
0.032648
0.033931
0.032211
0.032155
0.032509
0.034585
0.017528
0.021780
0.032260
0.032375
0.031112
0.033815
0.033272
0.035923
0.033853
0.025205
0.033116
0.034053
0.031621
0.031642
0.033183
0.035980
0.023767
0.033652
0.034657
0.032682
0.032586
0.027397
0.034899
0.019866
0.034026
0.033845
0.034797
0.033933
0.034798
0.032440
0.033595
0.027554
0.025690
0.032626
0.028328
0.032087
0.033345
0.022400
0.032253
0.038256
0.025063
0.031807
0.033442
0.035345
0.027564
0.031686
0.033595
0.022056
0.033082
0.031991
0.033894
0.033732
0.032637
0.022588
0.032767
0.026517
0.034356
0.032373
0.022544
0.032534
0.033233
0.032518
0.034292
0.031875
0.033812
0.017564
0.016575
0.031382
0.034001
0.032563
0.033170
0.034561
0.032526
0.021430
0.034223
0.035725
0.032408
0.032897
0.025477
0.037475
0.035296
0.020519
0.033797
0.033236
0.032822
0.034206
0.032917
0.030952
0.029425
0.031578
0.026405
0.028034
0.030046
0.033102
0.027310
0.034428
0.032023
0.035109
0.032954
0.023345
0.034164
0.033158
0.034143
0.033904
0.025925
0.033709
0.036111
0.033449
0.033080
0.024595
0.029246
0.034525
0.032792
0.026424
0.025381
0.035240
0.033416
0.032665
0.031117
0.031218
0.027643
0.032855
0.025568
0.034882
0.033950
0.033162
0.033239
0.022485
0.029403
0.032231
0.032628
0.032982
0.032452
0.032316
0.026811
0.027958
0.033524
0.034416
0.027026
0.034738
0.020308
0.035129
0.029913
0.032609
0.028553
0.034198
0.033436
0.032080
0.035390
0.030805
0.024029
0.032121
0.020249
0.032706
0.032263
0.032409
0.033519
0.033494
0.025080
0.032946
0.018694
0.032944
0.032148
0.030751
0.032726
0.039019
0.024371
0.032748
0.032807
0.034273
0.028956
0.034175
0.031967
0.033084
0.031750
0.032758
0.032217
0.028205
0.032044
0.025086
0.032416
0.025899
0.032085
0.032536
0.033201
0.032155
0.033398
0.033779
0.031929
0.028349
0.032687
0.033825
0.032655
0.022338
0.024548
0.032654
0.032432
0.034204
0.021136
0.034418
0.032190
0.022804
0.033447
0.024147
0.033060
0.032650
0.032027
0.026546
0.032644
0.031804
0.034673
0.028981
0.029302
0.033272
0.022955
0.026797
0.034078
0.019420
0.031824
0.032159
0.033058
0.032702
0.020084
0.031550
0.033877
0.031101
0.027045
0.028230
0.032935
0.021998
0.033034
0.032977
0.033534
0.028457
0.032717
0.033448
0.027488
0.033000
0.033350
0.025681
0.033798
0.035065
0.032269
0.017838
0.025133
0.034973
0.034375
0.032821
0.033909
0.024851
0.033143
0.034096
0.032968
0.033527
0.034117
0.020004
0.018509
0.020806
0.028202
0.033128
0.033119
0.018900
0.024623
0.033268
0.016768
0.016665
0.020485
0.028674
0.033633
0.032771
0.025394
0.033069
0.031683
0.033151
0.034255
0.033750
0.027137
0.035124
0.025898
0.029681
0.033242
0.031031
0.035321
0.031355
0.030751
0.034484
0.033576
0.033560
0.033272
0.027601
0.032951
0.033240
0.022675
0.034956
0.033033
0.028791
0.034261
0.034144
0.036313
0.020653
0.033059
0.034170
0.028118
0.033339
0.033572
0.033661
0.021772
0.034608
0.033690
0.022649
0.025512
0.035483
0.033242
0.033751
0.034378
0.033136
0.028398
0.033247
0.029322
0.020912
0.032692
0.029717
0.022514
0.029715
0.031798
0.034720
0.023911
0.034827
0.033908
0.033690
0.031925
0.035844
0.032516
0.034063
0.034344
0.020849
0.033524
0.033248
0.033453
0.034942
0.035117
0.032495
0.034039
0.029053
0.033112
0.029545
0.031867
0.033012
0.032362
0.028720
0.032928
0.032146
0.019362
0.026025
0.033257
0.033883
0.025130
0.031755
0.023171
0.022450
0.033537
0.032954
0.017635
0.033273
0.032494
