444,331,18,32
444,330,17,33
444,330,18,33
445,331,18,33
443,330,18,33
444,331,18,33
444,330,18,34
444,330,18,34
444,330,17,34
444,330,18,34
444,330,17,34
444,330,18,34
444,331,17,33
444,330,18,34
444,330,17,34
444,330,17,34
444,330,17,34
444,330,17,34
443,330,18,34
444,330,18,33
444,330,18,34
444,330,18,34
444,329,18,35
443,330,18,34
443,328,18,35
443,328,18,35
443,329,18,35
443,329,18,35
443,328,18,36
442,327,19,36
443,327,19,36
442,327,19,36
442,327,19,36
442,325,19,37
442,326,19,38
442,325,20,37
443,324,19,38
443,323,19,40
442,321,20,41
442,321,20,41
442,320,20,42
442,319,20,43
444,320,21,42
444,318,21,42
445,318,22,42
444,318,24,43
446,318,24,43
446,318,25,43
447,316,25,45
449,315,24,46
450,313,24,49
452,314,23,49
453,315,23,48
454,314,23,48
455,315,24,48
454,314,24,49
456,314,24,48
457,313,26,49
458,314,26,50
457,314,28,49
459,314,28,49
459,314,28,50
462,314,26,50
464,313,26,48
466,315,25,48
467,315,25,47
469,315,26,47
470,314,26,47
472,315,27,48
472,314,29,48
474,313,29,49
475,313,30,50
476,313,31,50
477,315,31,48
479,316,29,48
481,315,28,48
482,314,28,48
485,314,26,47
486,314,26,49
488,315,25,48
491,313,25,48
491,313,25,49
493,314,25,47
494,315,25,47
496,315,25,46
495,314,26,48
499,315,25,46
501,316,23,45
501,314,24,47
504,315,24,46
505,315,24,46
505,313,25,46
507,314,24,47
510,314,23,38
513,315,22,35
514,313,22,40
515,315,23,41
516,315,23,41
516,315,26,45
517,315,27,46
518,314,26,47
521,314,25,46
523,314,24,46
525,315,24,47
526,314,24,47
527,314,24,47
528,313,24,48
530,314,23,46
530,314,25,46
532,314,25,47
533,315,25,46
533,316,26,46
536,316,24,46
539,316,23,45
541,315,22,45
542,315,22,45
544,316,23,45
546,316,24,44
546,315,26,46
548,315,28,46
549,316,27,46
551,315,28,45
552,316,28,44
554,316,26,44
557,316,23,40
559,317,22,39
560,316,22,39
562,317,21,42
563,317,22,43
565,316,22,43
566,317,20,43
567,316,21,43
568,316,21,43
569,317,22,43
570,315,23,44
571,317,23,44
571,317,24,44
572,318,24,43
573,318,24,44
573,317,24,43
575,317,23,44
577,317,23,44
579,318,23,43
580,318,23,43
581,318,24,42
582,318,24,42
583,317,25,42
584,318,25,41
584,318,25,42
585,319,25,42
586,318,24,42
587,317,25,43
588,318,24,43
590,317,23,42
592,318,23,43
594,318,22,43
594,318,24,44
596,318,23,44
596,319,23,43
597,319,23,42
598,318,23,42
599,318,23,42
600,319,22,37
600,319,22,41
601,319,22,38
602,319,22,42
603,319,22,42
604,319,23,42
606,320,23,42
606,319,24,42
608,320,24,43
607,320,25,43
609,320,24,43
609,321,24,42
610,321,24,43
610,321,23,41
611,321,23,42
612,322,23,41
610,322,24,41
612,322,24,42
612,323,24,41
611,324,25,41
612,323,25,41
613,324,25,41
613,325,24,40
613,325,24,40
614,326,24,39
612,326,25,39
613,326,24,39
614,326,22,38
615,327,22,37
615,328,22,36
614,328,22,35
614,328,21,35
615,329,21,35
614,328,21,34
614,329,21,35
613,328,22,35
614,329,21,34
613,328,22,34
614,329,21,35
614,328,21,35
615,329,21,34
615,329,22,34
614,329,22,34
614,330,22,34
614,330,22,34
613,328,22,35
614,329,22,34
614,330,22,34
615,330,22,34
615,330,22,34
614,329,22,34
615,330,22,33
615,330,22,34
615,330,21,34
616,331,21,33
615,330,21,34
616,330,21,33
616,331,21,33
616,331,21,33
616,330,22,34
616,331,22,34
615,331,22,33
616,330,22,33
616,330,21,33
616,331,21,34
616,331,21,33
616,331,21,33
616,331,21,33
616,331,21,33
616,331,22,33
616,332,21,33
615,331,22,33
616,331,22,33
616,331,22,32
616,332,21,33
615,331,22,33
616,331,22,33
616,331,22,33
617,332,21,33
616,331,22,33
616,332,22,33
616,330,22,33
617,332,21,33
617,331,22,33
616,331,22,32
616,331,22,32
617,332,21,32
617,331,21,32
617,332,21,33
617,331,21,32
617,331,21,33
617,332,21,33
617,332,22,32
617,331,21,32
617,332,21,32
617,332,22,31
617,331,22,32
618,332,21,32
617,332,22,32
617,332,21,32
617,332,21,32
617,331,21,32
617,331,21,32
618,332,20,32
618,332,21,32
617,332,21,32
618,332,21,31
617,332,21,31
618,332,20,32
617,332,21,32
618,332,21,32
617,332,21,32
618,332,21,31
617,332,21,31
617,332,20,32
618,331,21,32
617,332,21,31
617,332,21,31
617,332,20,32
618,332,21,32
618,332,21,31
617,332,21,32
617,332,21,32
618,332,21,32
618,332,21,32
618,331,21,32
618,332,21,32
619,332,21,31
618,332,22,31
618,332,21,32
618,332,22,31
618,332,21,31
617,332,21,31
617,332,21,32
618,332,21,31
617,332,21,31
617,332,21,32
618,332,21,31
617,332,22,31
617,332,21,32
618,332,21,31
618,332,21,32
617,332,21,31
617,332,21,32
618,332,21,31
617,332,21,31
618,333,20,32
617,331,21,32
617,333,21,32
618,332,21,31
618,332,21,31
618,331,21,31
617,332,20,32
618,331,21,32
617,332,21,31
619,332,21,31
618,332,21,31
618,333,20,31
619,332,21,32
617,331,21,31
619,332,21,32
619,332,21,31
618,333,20,31
619,332,21,31
618,331,21,31
618,332,20,31
619,332,21,31
618,333,20,31
619,332,21,32
618,333,21,31
618,331,21,32
618,332,21,31
618,332,21,31
617,333,21,32
618,332,21,31
619,331,21,31
618,333,20,32
618,332,21,32
619,332,21,31
619,333,20,32
617,332,21,32
619,332,21,31
618,333,21,32
618,332,21,32
618,332,21,31
618,332,21,31
617,331,21,32
619,332,21,32
618,332,21,32
619,332,21,32
617,332,21,32
619,332,21,31
618,332,21,31
619,333,20,32
618,331,21,32
617,332,21,32
620,332,21,32
617,331,21,32
620,332,19,32
618,331,21,33
618,333,21,33
618,332,21,32
618,332,21,31
618,333,21,32
617,333,21,32
618,332,22,32
617,333,21,32
617,332,22,32
617,333,22,32
616,332,22,32
616,333,23,32
617,333,23,32
617,331,23,32
616,333,22,32
616,332,23,32
616,332,23,32
616,332,23,32
615,332,23,32
616,333,23,32
616,332,23,32
616,332,22,32
616,332,22,32
615,332,22,33
615,332,22,32
615,333,22,32
615,332,22,33
615,332,22,33
614,332,22,33
614,331,22,33
613,331,23,33
614,331,22,34
613,330,22,35
613,330,22,35
612,329,22,36
612,328,23,37
613,328,23,36
613,327,23,37
612,325,23,38
613,326,22,38
612,325,23,39
614,324,22,40
613,324,23,40
614,323,23,41
613,321,23,42
614,321,23,42
614,321,24,44
613,319,25,45
613,319,24,46
614,318,25,47
614,317,25,47
615,317,24,46
614,317,25,47
615,318,24,47
616,316,24,48
616,316,24,49
617,317,24,48
618,315,23,49
618,316,23,48
619,315,23,49
618,316,23,48
620,315,22,49
620,316,22,48
620,316,22,49
620,315,22,49
620,316,22,48
620,315,22,49
621,316,22,48
621,316,22,48
622,316,21,47
622,316,21,48
621,316,21,48
623,316,22,48
623,316,21,47
624,316,22,46
623,316,21,46
624,316,22,46
624,316,22,46
625,317,22,45
625,316,22,46
625,315,22,45
626,316,22,46
625,316,22,47
626,316,22,45
625,316,22,46
627,316,22,44
627,316,22,44
628,316,21,43
628,316,21,42
628,317,21,43
628,316,21,46
629,316,21,46
628,317,21,45
629,317,21,46
629,317,21,46
629,316,21,46
629,316,22,46
629,316,21,45
629,316,21,44
629,316,21,43
630,316,21,44
629,316,21,44
629,316,21,44
629,315,21,43
629,316,20,43
629,316,20,41
628,315,21,41
629,315,20,40
628,316,21,38
629,317,21,42
628,316,21,43
628,315,21,43
627,316,21,42
627,315,21,44
626,315,22,42
626,316,22,42
626,315,22,42
626,316,22,43
625,315,22,44
624,315,23,45
624,315,23,44
623,317,23,44
624,315,22,43
621,316,22,43
622,315,22,43
622,316,22,42
621,315,22,43
621,315,22,42
620,315,22,44
619,316,22,44
618,315,22,44
619,315,22,44
618,315,22,43
617,316,22,39
617,316,22,42
616,315,22,41
615,315,23,39
615,315,23,40
615,316,23,41
613,315,23,41
613,316,23,41
612,315,23,42
611,316,23,42
611,316,23,42
611,316,23,43
610,315,23,42
609,316,23,42
608,316,23,42
607,316,24,41
606,315,23,42
606,316,23,41
606,316,22,42
605,316,22,42
605,317,22,42
604,316,22,43
605,317,22,42
604,317,22,42
604,316,22,41
603,316,22,41
603,317,22,40
602,317,23,40
602,316,22,40
602,317,22,40
601,317,22,40
602,317,22,40
601,319,22,40
601,318,22,39
600,320,22,38
601,319,21,38
599,321,22,36
600,321,21,36
599,322,21,35
599,323,21,35
599,323,21,35
598,323,21,35
598,323,21,36
599,323,20,36
599,325,20,35
599,325,20,35
598,325,20,35
599,325,20,34
599,325,20,34
599,326,20,34
599,326,20,34
599,327,20,34
598,327,20,34
599,326,20,34
599,327,20,34
599,326,20,34
599,328,20,34
571,344,19,34
600,327,20,33
596,328,21,33
599,328,20,32
599,328,19,32
599,327,19,32
599,328,19,31
600,329,19,31
598,327,20,33
600,328,19,31
599,329,19,31
597,329,21,33
597,330,21,34
598,330,21,34
581,343,20,38
597,328,22,38
580,325,23,53
581,327,24,52
581,327,23,54
582,326,23,55
582,326,23,54
584,327,23,53
584,328,23,53
583,328,24,54
583,327,24,55
584,326,25,56
585,345,21,38
586,339,21,43
586,326,23,54
586,326,25,55
586,325,25,57
586,326,25,56
586,325,25,57
585,325,25,57
588,325,25,56
589,326,25,55
591,326,23,55
590,327,24,55
592,326,23,57
593,328,23,54
594,326,24,56
594,326,24,56
595,326,24,56
596,327,23,57
596,327,24,57
597,327,25,57
598,327,24,57
598,327,24,57
599,328,23,57
599,328,24,57
598,327,26,58
599,327,25,58
600,326,26,59
600,327,26,59
601,326,27,58
600,326,28,59
601,325,29,61
601,325,29,61
602,326,29,59
602,326,28,60
603,326,27,60
604,326,27,59
607,327,26,57
607,328,26,58
608,327,25,59
609,328,24,59
609,328,23,57
611,328,24,58
611,329,25,58
612,329,25,58
613,329,25,58
613,329,25,58
614,328,25,59
615,329,26,59
615,329,25,59
615,329,26,58
615,329,26,59
618,328,26,60
619,329,25,60
618,328,27,61
619,327,27,61
618,327,29,61
618,327,30,62
619,327,30,63
619,326,31,63
620,327,30,64
620,327,32,63
621,328,31,63
622,328,30,62
624,328,29,62
624,329,28,62
625,329,25,62
623,328,26,61
616,328,27,62
606,328,27,61
602,347,23,44
595,347,21,43
588,342,24,49
590,338,24,54
588,334,25,59
588,332,26,63
589,333,26,61
590,332,26,62
588,331,27,62
589,330,29,64
589,329,30,65
590,329,29,64
590,329,31,64
591,329,32,64
590,329,33,65
592,329,33,65
591,329,34,65
591,329,34,65
593,329,34,65
594,330,34,65
595,330,34,65
596,331,32,65
598,331,30,64
599,330,28,65
600,330,27,64
602,330,27,64
603,330,27,64
604,331,28,64
603,331,30,64
604,331,30,64
605,333,30,63
606,333,31,64
608,333,29,64
609,333,29,64
609,332,29,64
611,332,28,64
611,332,30,65
612,332,30,66
613,332,30,66
614,331,31,66
614,331,32,67
614,332,32,66
616,330,32,67
616,332,31,66
617,332,31,67
618,332,32,66
619,332,31,66
620,333,32,66
620,332,32,66
622,332,31,67
624,337,27,63
624,334,28,65
624,333,29,66
627,333,27,67
629,334,28,66
629,334,28,66
629,334,30,66
631,335,29,66
633,335,27,66
632,335,28,66
631,335,29,66
633,334,30,67
635,335,29,67
635,334,30,68
636,333,31,69
636,334,32,69
636,333,33,69
637,332,34,70
637,333,34,70
637,333,35,70
638,333,35,70
638,333,35,71
640,334,34,71
640,334,33,70
643,335,33,69
644,335,32,70
645,334,30,71
647,339,27,66
649,338,27,66
649,336,27,67
648,335,30,69
651,336,31,68
650,338,32,68
651,336,32,69
653,340,31,66
653,338,31,69
654,338,31,68
655,337,31,69
658,337,31,69
659,337,30,69
659,337,32,71
660,336,33,71
660,336,33,71
662,335,33,72
662,336,34,71
664,335,34,73
663,337,35,71
665,337,32,72
665,337,33,72
665,336,34,72
666,336,34,73
666,336,34,73
669,337,32,73
670,338,30,72
673,338,29,72
673,339,29,70
674,337,29,71
674,339,30,71
673,338,32,72
675,339,33,72
675,338,34,73
678,340,32,71
679,339,31,73
680,339,31,72
682,339,30,73
682,339,30,74
685,339,30,74
683,340,32,74
685,338,33,75
687,337,33,76
687,337,33,75
688,338,35,75
687,338,35,76
689,338,34,75
689,338,36,76
691,337,35,76
690,339,37,75
692,339,36,77
692,338,35,77
694,339,35,77
696,338,33,77
698,343,30,73
699,340,29,73
699,341,30,74
701,340,31,75
702,340,31,76
702,340,32,76
703,340,33,76
705,340,32,76
706,341,31,76
707,342,31,76
709,343,30,76
710,343,30,75
710,343,31,75
712,341,30,76
711,341,34,76
713,340,34,78
713,340,36,78
714,339,35,77
713,339,38,78
715,341,36,77
716,341,37,77
716,341,36,77
718,341,37,78
717,341,37,77
718,340,36,79
720,340,35,78
722,341,34,78
724,343,31,76
729,364,27,54
732,367,25,53
734,367,25,54
735,364,26,58
731,346,29,75
728,356,29,65
713,348,32,74
701,350,32,74
685,355,31,68
674,340,32,79
674,337,32,81
675,336,33,80
674,335,36,81
676,335,35,81
676,334,37,80
678,334,37,80
675,334,39,80
677,334,39,80
677,333,39,80
677,334,38,81
679,333,38,83
679,335,38,81
681,335,36,83
683,334,36,83
684,336,35,81
688,337,31,80
692,363,26,53
696,367,23,49
696,367,24,51
696,363,27,54
695,340,32,77
692,338,38,81
692,336,39,84
695,336,37,85
696,336,36,84
698,336,36,84
699,337,34,84
702,337,35,84
701,336,36,86
703,335,37,86
705,335,39,85
706,336,39,84
706,336,41,85
706,336,41,84
707,336,43,85
709,338,43,85
711,338,42,86
711,337,41,87
713,338,40,86
715,338,38,86
717,338,37,86
718,339,36,84
726,368,27,54
729,369,25,53
732,370,24,54
733,376,26,46
733,372,30,53
727,347,38,77
725,342,43,85
725,340,44,87
731,346,39,83
731,342,39,86
732,341,39,87
736,344,36,85
740,346,35,83
740,343,38,85
740,341,42,86
741,341,45,88
741,340,46,89
743,340,43,88
744,340,47,89
746,340,46,90
746,341,45,90
746,343,47,87
748,341,45,91
751,341,44,91
753,341,42,92
754,342,42,91
758,341,39,92
761,345,35,87
762,343,37,90
761,343,39,91
763,342,42,92
763,343,45,92
765,343,45,92
767,343,45,93
767,343,44,93
771,344,43,93
773,343,41,94
775,344,39,94
778,344,38,94
780,344,41,94
779,344,44,94
782,342,45,95
782,343,47,93
783,343,50,95
782,341,50,95
785,345,50,94
782,352,47,89
791,347,48,95
748,370,47,80
792,346,45,95
795,346,44,96
798,345,42,96
802,351,38,90
807,380,31,61
813,384,27,56
819,387,25,54
822,390,26,51
817,385,33,54
819,379,43,66
811,350,49,93
810,348,52,98
810,348,53,98
813,349,52,97
814,349,53,98
823,348,45,98
826,347,44,100
830,347,44,100
830,348,49,99
835,349,47,96
832,348,55,97
792,374,50,86
838,348,55,98
837,350,54,101
834,354,56,97
802,370,52,98
803,365,54,101
806,370,55,97
809,371,54,99
814,371,50,100
855,350,45,103
851,361,45,92
864,366,39,85
862,373,42,80
870,390,43,63
869,356,50,95
866,351,56,103
867,355,60,99
874,353,52,101
877,352,51,103
880,351,50,105
879,352,51,106
880,372,49,90
889,384,43,72
924,400,34,54
899,402,28,52
905,400,24,55
906,405,26,52
899,402,35,55
906,403,41,58
889,405,38,70
908,391,46,78
876,394,53,85
893,382,52,98
887,375,58,109
883,381,63,105
889,383,61,103
894,381,55,107
897,380,55,108
833,378,44,114
831,378,48,111
909,377,46,111
917,374,41,115
916,374,41,116
916,376,42,115
906,381,51,111
899,381,58,113
893,385,61,112
889,384,59,114
884,386,54,113
885,393,47,85
874,394,40,80
878,384,43,88
877,387,46,100
875,389,48,105
871,387,52,110
863,390,57,106
856,389,61,105
842,394,66,100
829,393,62,102
818,390,65,106
822,392,56,104
816,386,57,112
813,382,53,116
809,387,58,112
793,387,52,112
785,382,49,117
779,391,44,107
763,387,52,111
757,382,62,119
758,387,63,111
761,383,72,116
764,384,70,114
760,383,73,116
757,384,69,116
754,382,64,117
753,384,62,116
763,380,53,119
769,379,51,117
774,379,50,118
764,382,53,117
755,384,59,116
744,386,64,113
732,383,72,117
727,383,73,119
729,383,71,118
727,384,73,117
731,384,73,118
735,384,66,119
735,384,63,117
741,382,54,119
749,381,45,119
751,382,45,119
751,383,48,118
752,383,54,118
753,384,63,118
756,384,67,118
763,384,68,118
770,385,66,118
778,385,61,117
784,387,57,115
792,385,51,115
797,385,50,117
801,384,48,119
806,384,53,113
809,384,58,117
813,391,58,107
818,389,62,111
813,431,58,74
810,387,57,110
808,418,55,83
808,395,60,109
818,425,54,83
824,429,45,77
825,406,43,82
835,412,44,76
837,418,41,72
848,437,38,64
847,436,46,69
852,441,51,65
860,442,49,60
874,446,42,59
879,446,40,54
883,447,41,63
