0.001717
0.017995
0.016092
0.015256
0.015146
0.015901
0.015425
0.016620
0.018586
0.020701
0.059834
0.035476
0.025452
0.019681
0.018227
0.026419
0.023131
0.019451
0.021729
0.022389
0.017982
0.018514
0.015243
0.018659
0.014853
0.015160
0.015364
0.016692
0.020426
0.016674
0.021574
0.015587
0.015259
0.016271
0.016995
0.018502
0.018432
0.016930
0.017833
0.031427
0.027195
0.043295
0.039680
0.051306
0.043910
0.025957
0.020883
0.025304
0.016966
0.015465
0.015021
0.014680
0.014754
0.015978
0.014787
0.014925
0.015053
0.014689
0.014745
0.018091
0.015026
0.014961
0.015134
0.014848
0.015021
0.014797
0.014773
0.015337
0.014765
0.014839
0.014759
0.017360
0.015338
0.022224
0.021549
0.020614
0.018951
0.017953
0.017853
0.022746
0.019927
0.020439
0.017712
0.019392
0.020941
0.017995
0.015126
0.015429
0.014767
0.016347
0.015506
0.016077
0.015237
0.018122
0.015409
0.014964
0.014362
0.014241
0.014603
0.020838
0.018914
0.018275
0.017796
0.019244
0.021121
0.021683
0.020511
0.017604
0.019439
0.019212
0.022613
0.027253
0.017435
0.017404
0.016705
0.017503
0.017210
0.016992
0.015929
0.015848
0.015882
0.015221
0.026486
0.028548
0.019780
0.021174
0.020989
0.017857
0.018642
0.021629
0.016677
0.026723
0.019522
0.019905
0.016252
0.016180
0.016545
0.015135
0.015166
0.015325
0.014953
0.016705
0.014920
0.016495
0.015615
0.016911
0.014683
0.017139
0.022308
0.019496
0.019280
0.015743
0.017646
0.018280
0.021896
0.017208
0.019210
0.020203
0.019724
0.019186
0.015735
0.016062
0.016661
0.016339
0.015858
0.015104
0.015270
0.015632
0.015803
0.016253
0.017324
0.015225
0.015556
0.015181
0.015136
0.015287
0.015206
0.015167
0.015363
0.016005
0.015280
0.015950
0.015108
0.025766
0.018718
0.021115
0.016947
0.017336
0.019273
0.020066
0.017854
0.015552
0.019168
0.018158
0.018978
0.019403
0.016032
0.015283
0.014714
0.014729
0.014899
0.015552
0.015281
0.015380
0.015173
0.015324
0.015664
0.015544
0.015431
0.015388
0.024389
0.017976
0.016125
0.017878
0.017323
0.017482
0.015603
0.018281
0.019085
0.022062
0.018664
0.016660
0.015036
0.015598
0.015697
0.015344
0.016412
0.017629
0.014868
0.014901
0.015103
0.015018
0.015417
0.017713
0.016966
0.015763
0.016637
0.024199
0.019361
0.020288
0.018449
0.017750
0.017188
0.021558
0.018060
0.020915
0.021044
0.015093
0.015653
0.015318
0.016276
0.017237
0.014590
0.016025
0.014989
0.015113
0.014908
0.014164
0.014112
0.014239
0.022799
0.017188
0.019516
0.018862
0.018997
0.019320
0.016746
0.016766
0.017238
0.017227
0.018768
0.018708
0.016920
0.016229
0.015058
0.016188
0.015081
0.014602
0.014934
0.014333
0.014343
0.014874
0.017119
0.015116
0.014624
0.014751
0.014958
0.014828
0.014676
0.014601
0.015437
0.014474
0.014557
0.014782
0.014574
0.015515
0.018607
0.019184
0.018263
0.018454
0.017728
0.019658
0.018467
0.019744
0.016585
0.018961
0.017174
0.016406
0.017108
0.016880
0.014802
0.015317
0.014264
0.015276
0.015782
0.015459
0.015095
0.018559
0.014801
0.015264
0.017074
0.017002
0.016163
0.020672
0.018059
0.018359
0.016727
0.018807
0.022206
0.020483
0.016062
0.020702
0.018793
0.024542
0.018744
0.019103
0.016411
0.015160
0.014663
0.014927
0.014910
0.014638
0.015650
0.020909
0.016766
0.018394
0.015893
0.026169
0.016688
0.016883
0.017045
0.020676
0.020817
0.018608
0.018003
0.026025
0.019469
0.018854
0.019230
0.019134
0.017236
0.018013
0.016966
0.017078
0.016342
0.016672
0.015327
0.015482
0.014990
0.014916
0.018546
0.014247
0.015279
0.020090
0.019127
0.018222
0.018892
0.021510
0.022803
0.021606
0.022609
0.023297
0.017184
0.021593
0.017065
0.025770
0.017261
0.015809
0.016315
0.016240
0.015404
0.014425
0.014886
0.014418
0.017579
0.014801
0.014959
0.016090
0.014475
0.014455
0.019855
0.015067
0.015069
0.014991
0.016637
0.014550
0.014937
0.014605
0.014837
0.017159
0.017222
0.016937
0.019744
0.017786
0.017896
0.018430
0.019082
0.023118
0.018210
0.019051
0.016851
0.015241
0.014954
0.014552
0.015581
0.015387
0.014843
0.015598
0.014985
0.014600
0.014625
0.015057
0.014600
0.014761
0.014594
0.014540
0.019757
0.015743
0.020028
0.019852
0.018433
0.019922
0.018853
0.023386
0.028147
0.017917
0.023345
0.019840
0.016472
0.016599
0.020593
0.018361
0.015381
0.015980
0.015320
0.015246
0.019828
0.015835
0.015085
0.015137
0.020706
0.019850
0.017686
0.021224
0.019505
0.017355
0.017463
0.017178
0.016168
0.018225
0.016683
0.016635
0.015033
0.015058
0.014883
0.014857
0.014893
0.015012
0.018868
0.014801
0.019216
0.015041
0.015151
0.014647
0.014768
0.017179
0.015952
0.022569
0.017455
0.017045
0.019684
0.019352
0.020170
0.018088
0.018116
0.020614
0.016476
0.023325
0.016514
0.016479
0.016030
0.016320
0.016057
0.015105
0.014491
0.014673
0.016253
0.014414
0.014737
0.015848
0.015251
0.015281
0.015543
0.014925
0.015193
0.015348
0.015066
0.014877
0.014792
0.014890
0.016403
0.015318
0.014727
0.016220
0.018089
0.020166
0.026451
0.016832
0.021368
0.017226
0.021684
0.020272
0.020507
0.023199
0.022692
0.014787
0.015357
0.014477
0.015174
0.014318
0.014718
0.014610
0.014931
0.014199
0.014941
0.015221
0.014996
0.015183
0.015836
0.015425
0.017314
0.019749
0.022461
0.021918
0.018809
0.021066
0.019282
0.020374
0.018595
0.017594
0.021536
0.019158
0.018765
0.016494
0.015449
0.016266
0.015296
0.017526
0.016417
0.017486
0.015921
0.014627
0.015031
0.016170
0.016155
0.015780
0.020807
0.018945
0.018481
0.018244
0.018215
0.018562
0.017517
0.018932
0.025858
0.029446
0.015980
0.019569
0.016205
0.016303
0.014363
0.014994
0.014486
0.014433
0.014384
0.014294
0.014524
0.015208
0.014313
0.014067
0.014487
0.016783
0.018497
0.018378
0.019621
0.015285
0.016157
0.022531
0.017296
0.016926
0.019645
0.017133
0.015936
0.016210
0.014537
0.015109
0.015059
0.014709
0.015175
0.016140
0.020127
0.015608
0.015195
0.017038
0.015275
0.014846
0.016284
0.014229
0.016656
0.014749
0.014682
0.015359
0.014864
0.015053
0.015177
0.014988
0.015261
0.025528
0.020381
0.017701
0.017053
0.020557
0.017196
0.015989
0.018345
0.019395
0.018150
0.023845
0.017400
0.018629
0.017463
0.017783
0.016911
0.016117
0.015732
0.017143
0.015289
0.014961
0.017029
0.016943
0.018524
0.016519
0.019604
0.016483
0.019515
0.019246
0.015218
0.020618
0.020342
0.016629
0.017984
0.019097
0.018501
0.018411
0.016143
0.015011
0.015693
0.015147
0.015102
0.016257
0.015830
0.017857
0.015057
0.014659
0.014943
0.014934
0.021124
0.017375
0.018048
0.014953
0.016743
0.017385
0.021697
0.019315
0.019034
0.031703
0.026505
0.022423
0.018977
0.018885
0.016608
0.016491
0.015975
0.016415
0.017329
0.016067
0.015255
0.015029
0.015026
0.014446
0.015363
0.019098
0.016449
0.018715
0.019046
0.017937
0.016728
0.018604
0.019275
0.017923
0.019557
0.018306
0.017811
0.017095
0.015630
0.015293
0.018133
0.015125
0.015306
0.015146
0.015537
0.014913
0.019069
0.014640
0.016521
0.015318
0.015238
0.014815
0.014685
0.015272
0.015481
0.016084
0.017164
0.016232
0.016216
0.015612
0.022066
0.020792
0.021286
0.024013
0.031918
0.028525
0.022118
0.019419
0.019754
0.019082
0.019988
0.019435
0.016853
0.019526
0.016745
0.016446
0.015277
0.015271
0.015418
0.015998
0.014992
0.014962
0.014838
0.015019
0.014890
0.014829
0.018559
0.019682
0.018268
0.018761
0.018020
0.018035
0.018499
0.016920
0.016794
0.020611
0.020917
0.020069
0.017820
0.017401
0.018965
0.015341
0.015270
0.015244
0.016767
0.014864
0.014746
0.017560
0.018912
0.015213
0.015919
0.015987
0.017612
0.021148
0.016552
0.028176
0.021270
0.020338
0.021039
0.020575
0.022984
0.017848
0.021662
0.019874
0.016488
0.017867
0.015324
0.016592
0.015208
0.015472
0.017750
0.015820
0.015840
0.015737
0.015770
0.015827
0.014934
0.020056
0.023564
0.015826
0.017601
0.028968
0.024579
0.029955
0.025556
0.017532
0.027932
0.024889
0.018750
0.019460
0.018281
0.018835
0.015241
0.017457
0.016724
0.015199
0.016903
0.015851
0.015228
0.015182
0.015143
0.015247
0.015079
0.016649
0.015326
0.015507
0.015385
0.015987
0.015188
0.015247
0.018285
0.014812
0.014643
0.014896
0.016245
0.014849
0.016246
0.019341
0.019568
0.018868
0.019603
0.020100
0.028422
0.021041
0.019198
0.021806
0.023752
0.017114
0.015330
0.015279
0.022576
0.016688
0.018872
0.015408
0.016344
0.015423
0.015273
0.015196
0.015525
0.015371
0.018836
0.016015
0.016711
0.018372
0.019342
0.017201
0.016652
0.019802
0.018579
0.020340
0.017183
0.019592
0.017998
0.016556
0.017020
0.015643
0.015580
0.015893
0.015602
0.015770
0.015383
0.015724
0.015410
0.015587
0.015132
0.018224
0.017070
0.018478
0.016087
0.029372
0.020899
0.017497
0.018833
0.018633
0.017455
0.018799
0.019573
0.015906
0.016844
0.016749
0.015222
0.015504
0.016222
0.014757
0.015712
0.015357
0.015221
0.015770
0.015436
0.015292
0.015305
0.016462
0.016841
0.017147
0.019616
0.018738
0.019427
0.019184
0.021616
0.018999
0.036368
0.018451
0.018174
0.016761
0.016757
0.017136
0.015725
0.015363
0.015139
0.014924
0.019379
0.015993
0.015993
0.015945
0.019302
0.015757
0.015627
0.015649
0.020991
0.015829
0.015247
0.015701
0.015801
0.016149
0.015580
0.021131
0.020229
0.018691
0.018975
0.028421
0.021547
0.016459
0.020643
0.020765
0.021599
0.021850
0.025471
0.023904
0.019905
0.017505
0.017823
0.017046
0.020252
0.018551
0.016535
0.017717
0.015383
0.014859
0.014906
0.015846
0.015526
0.023201
0.022990
0.021871
0.017795
0.028646
0.022109
0.019990
0.028759
0.027599
0.027338
0.033224
0.022719
0.023573
0.017934
0.017409
0.017416
0.016432
0.016116
0.016099
0.017437
0.015876
0.015421
0.031045
0.023252
0.018841
0.023343
0.023297
0.029053
0.018167
0.024498
0.018033
0.017083
0.017530
0.020687
0.017495
0.016655
0.017327
0.016578
0.018177
0.015886
0.019613
0.016046
0.015397
0.015135
0.015236
0.015296
0.015356
0.021292
0.022684
0.017001
0.026477
0.019136
0.018459
