0.012470
0.022383
0.022539
0.030613
0.028513
0.032823
0.034181
0.020196
0.031644
0.029473
0.019105
0.027439
0.032387
0.023779
0.031760
0.029021
0.024280
0.032929
0.020851
0.034303
0.024195
0.031476
0.031621
0.033215
0.019310
0.015224
0.032745
0.033586
0.032671
0.031740
0.031969
0.033401
0.032159
0.016261
0.031940
0.031878
0.027357
0.023087
0.026616
0.032856
0.019772
0.035561
0.032549
0.017226
0.018583
0.031551
0.026380
0.033943
0.029720
0.033818
0.036788
0.032417
0.033664
0.019289
0.020622
0.035057
0.032971
0.018493
0.032245
0.027295
0.033084
0.033400
0.033234
0.032503
0.033393
0.032994
0.030535
0.032440
0.032514
0.033396
0.028318
0.033163
0.033991
0.032149
0.028477
0.032550
0.029098
0.019566
0.031700
0.031667
0.030288
0.020795
0.021710
0.032993
0.032846
0.029362
0.031528
0.032469
0.027736
0.032847
0.032976
0.031525
0.015798
0.031618
0.035061
0.031201
0.032165
0.032637
0.026149
0.030859
0.031905
0.020607
0.033336
0.030693
0.031587
0.031344
0.033307
0.024388
0.017395
0.035126
0.033946
0.032661
0.032170
0.034445
0.027339
0.033549
0.032205
0.027723
0.031355
0.033437
0.016250
0.023604
0.023253
0.031581
0.030226
0.030155
0.031735
0.032837
0.020113
0.020453
0.032922
0.031497
0.033468
0.031156
0.023656
0.020039
0.035667
0.032349
0.019188
0.033069
0.032120
0.032768
0.016150
0.015604
0.033115
0.032523
0.029652
0.032415
0.034193
0.032465
0.018579
0.032073
0.033556
0.032727
0.031411
0.033822
0.031812
0.032416
0.028895
0.031590
0.031783
0.024405
0.032596
0.029142
0.028344
0.028913
0.031890
0.033594
0.031815
0.034140
0.018193
0.018600
0.016980
0.030371
0.019046
0.031467
0.030751
0.034344
0.031847
0.017601
0.032170
0.023727
0.033314
0.032444
0.032697
0.029669
0.017016
0.029433
0.031334
0.023881
0.032516
0.026842
0.029902
0.021059
0.025091
0.032330
0.032250
0.025719
0.032609
0.027911
0.034496
0.031996
0.033417
0.029703
0.025133
0.034328
0.027477
0.033013
0.034327
0.027323
0.031565
0.027104
0.032911
0.035116
0.027760
0.031605
0.032728
0.019558
0.027221
0.032473
0.034325
0.034010
0.032024
0.032062
0.031740
0.026155
0.032197
0.031831
0.022316
0.031234
0.032366
0.030858
0.032048
0.033341
0.034753
0.027674
0.031958
0.018978
0.031888
0.031765
0.031220
0.034622
0.022124
0.032517
0.032560
0.027439
0.034964
0.033118
0.027452
0.021096
0.035754
0.028615
0.032499
0.025320
0.032306
0.031309
0.032084
0.032839
0.016251
0.022209
0.017646
0.016604
0.031907
0.031696
0.031664
0.032468
0.017036
0.032563
0.033303
0.031641
0.028475
0.026720
0.020025
0.033016
0.032865
0.032633
0.032672
0.032051
0.033187
0.032911
0.030979
0.017251
0.025009
0.032580
0.030576
0.020853
0.022079
0.022160
0.033644
0.017152
0.031795
0.032328
0.031401
0.029993
0.033549
0.015941
0.030974
0.032297
0.024053
0.019015
0.031566
0.028562
0.016031
0.019704
0.033650
0.032483
0.031852
0.024382
0.032391
0.032506
0.031235
0.029819
0.024315
0.027947
0.032332
0.032731
0.031194
0.032422
0.026860
0.022882
0.026222
0.019329
0.027307
0.032376
0.032312
0.030914
0.021055
0.031041
0.023223
0.016140
0.015961
0.031636
0.031209
0.032462
0.020561
0.019034
0.017982
0.022095
0.019423
0.017937
0.016417
0.019090
0.017659
0.032776
0.027595
0.032835
0.033177
0.017136
0.016832
0.033905
0.030825
0.031348
0.034283
0.031155
0.032314
0.027219
0.018970
0.016057
0.032376
0.019839
0.032411
0.028823
0.027467
0.018145
0.033154
0.031962
0.019675
0.018875
0.015017
0.018929
0.032211
0.032641
0.015959
0.018917
0.034562
0.028839
0.025127
0.031420
0.031798
0.031913
0.032421
0.031551
0.022154
0.032985
0.032219
0.020241
0.029616
0.023466
0.031418
0.031758
0.023029
0.031468
0.029251
0.031306
0.033291
0.032515
0.033258
0.017795
0.033919
0.023075
0.026204
0.032481
0.025382
0.024562
0.032681
0.032388
0.033000
0.018573
0.024470
0.030251
0.027290
0.031079
0.031053
0.019865
0.032238
0.032465
0.025882
0.027977
0.032378
0.032416
0.023289
0.029920
0.031797
0.030622
0.032973
0.022153
0.030064
0.032534
0.033139
0.030930
0.031596
0.023669
0.033010
0.030507
0.024483
0.032336
0.021366
0.032538
0.024204
0.032917
0.031034
0.015737
0.020679
0.032909
0.032495
0.031642
0.032196
0.033001
0.033814
0.030737
0.017608
0.016887
0.015330
0.027478
0.027583
0.033633
0.026567
0.033172
0.028893
0.030490
0.030959
0.032809
0.032512
0.031856
0.033827
0.031363
0.031144
0.031310
0.033061
0.027478
0.029138
0.032120
0.016760
0.016280
0.026748
0.032240
0.022238
0.029067
0.029419
0.017716
0.032230
0.034147
0.027974
0.022937
0.033387
0.034480
0.031592
0.026792
0.025325
0.032046
0.031112
0.027333
0.030841
0.036132
0.031357
0.032541
0.030601
0.030077
0.017119
0.017194
0.016935
0.016884
0.032592
0.026071
0.016090
0.018703
0.031437
0.028889
0.025763
0.032615
0.032725
0.032572
0.026525
0.017364
0.015372
0.015653
0.029846
0.018307
0.033290
0.020115
0.017834
0.018290
0.016871
0.015218
0.015096
0.033535
0.032168
0.031126
0.032095
0.021992
0.031484
0.032169
0.020083
0.021191
0.016281
0.016605
0.032092
0.031724
0.031815
0.032115
0.032866
0.032501
0.028201
0.031958
0.031107
0.030750
0.031867
0.034550
0.033678
0.032174
0.032159
0.026136
0.023412
0.032702
0.017803
0.031880
0.025320
0.019306
0.023181
0.015718
0.032093
0.032111
0.025685
0.032853
0.032057
0.031123
0.032676
0.029607
0.035141
0.031548
0.032678
0.030552
0.024029
0.031947
0.032822
0.033384
0.032461
0.027681
0.015740
0.032867
0.031357
0.032158
0.032796
0.031548
0.029154
0.017539
0.030028
0.035710
0.028059
0.031801
0.027008
0.028167
0.032333
0.033729
0.031852
0.031910
0.021245
0.029803
0.027405
0.032482
0.026026
0.028419
0.032287
0.023101
0.031874
0.017130
0.032837
0.031741
0.034644
0.028170
0.032759
0.031818
0.016369
0.020146
0.018503
0.020799
0.033854
0.033167
0.020942
0.019095
0.032102
0.032669
0.031733
0.016841
0.026592
0.033230
0.032585
0.023291
0.032544
0.032374
0.024760
0.031388
0.034514
0.029578
0.031438
0.031154
0.031790
0.034962
0.032216
0.032766
0.032757
0.032140
0.020302
0.031916
0.020522
0.027706
0.035241
0.032388
0.025423
0.029046
0.033536
0.015877
0.035122
0.018084
0.033457
0.028211
0.019332
0.017430
0.035991
0.018966
0.018149
0.020942
0.017738
0.023125
0.031041
0.027821
0.031404
0.033453
0.033811
0.031946
0.032760
0.017174
0.033076
0.032145
0.020984
0.034251
0.032276
0.033972
0.032779
0.033792
0.030476
0.036630
0.033838
0.035847
0.023024
0.021216
0.032700
0.031583
0.031056
0.020779
0.032015
0.034962
0.036036
0.025659
0.025302
0.019897
0.015921
0.016578
0.030679
0.031483
0.023531
0.026830
0.033800
0.033135
0.032272
0.027439
0.031242
0.032823
0.036046
0.033051
0.018420
0.014712
0.019911
0.016092
0.016027
0.032229
0.032419
0.024835
0.033196
0.021068
0.031683
0.031541
0.032122
0.015797
0.015788
0.017658
0.017560
0.019141
0.033666
0.034288
0.020539
0.014667
0.021223
0.031379
0.031992
0.031844
0.032202
0.026322
0.031633
0.024467
0.026862
0.033014
0.033130
0.032334
0.029862
0.019232
0.016135
0.032207
0.026250
0.032740
0.032293
0.030778
0.031533
0.036138
0.035225
0.032223
0.033408
0.028001
0.021055
0.027135
0.030897
0.018924
0.031112
0.031262
0.025465
0.027517
0.016277
0.028814
0.019192
0.016018
0.033697
0.030661
0.032224
0.028202
0.035441
0.032782
0.033715
0.021999
0.030055
0.033906
0.019859
0.022957
0.034923
0.031751
0.016312
0.027939
0.032409
0.017969
0.018265
0.032435
0.031804
0.031937
0.032458
0.018064
0.015516
0.017202
0.016735
0.032665
0.033437
0.033281
0.033767
0.031493
0.034712
0.033120
0.026227
0.034257
0.023211
0.017036
0.033250
0.033378
0.020273
0.030061
0.016330
0.024303
0.026733
0.033082
0.031855
0.015088
0.031982
0.032131
0.031166
0.031679
0.030603
0.030855
0.025428
0.033538
0.019565
0.019421
0.018105
0.016904
0.016769
0.016925
0.017089
0.016314
0.016677
0.017323
0.016704
0.017026
0.017967
0.016955
0.017702
0.018070
0.018555
0.019758
0.021078
0.015972
0.015926
0.015164
0.015508
0.015644
0.015164
0.015331
0.015254
0.015544
0.017187
0.016389
0.019264
0.022319
0.019969
0.019984
0.023455
0.032671
0.035855
0.033195
0.033036
0.022165
0.032479
0.032076
0.032897
0.033765
0.033017
0.031253
0.033566
0.035439
0.034971
0.036047
0.028411
0.033427
0.019929
0.026600
0.031960
0.034156
0.032738
0.033492
0.032085
0.031456
0.030143
0.027686
0.032034
0.032069
0.029751
0.032584
0.033308
0.016900
0.031878
0.028609
0.035145
0.032420
0.024915
0.032589
0.030402
0.026193
0.031866
0.033337
0.030936
0.032717
0.031433
0.034350
0.032916
0.018909
0.030045
0.036381
0.033505
0.022230
0.032202
0.032034
0.032300
0.025747
0.033149
0.016135
0.031972
0.026182
0.031749
0.033496
0.031983
0.031321
0.031875
0.032340
0.031298
0.031714
0.032084
0.025191
0.035333
0.032998
0.030855
0.027298
0.028371
0.031319
0.032902
0.030214
0.021281
0.032746
0.020068
0.033366
0.031706
0.032354
0.033242
0.031723
0.031715
0.027802
0.033151
0.026985
0.032722
0.033175
0.025973
0.030039
0.032277
0.032537
0.031797
0.032453
0.031795
0.032016
0.024008
0.023576
0.018855
0.033082
0.031789
0.034124
0.028329
0.033053
0.031836
0.034402
0.032645
0.027235
0.020422
0.016585
0.032695
0.033854
0.034171
0.031914
0.032794
0.032943
0.033411
0.033036
0.020271
0.017876
0.016065
0.031861
0.033392
0.032749
0.033970
0.033268
0.029431
0.032644
0.024460
0.018598
0.022386
0.032616
0.032948
0.031874
0.032444
0.033378
0.034499
0.033473
0.031777
0.029048
0.037521
0.031585
0.032674
0.033026
0.034239
0.019214
0.035663
0.034680
0.024745
0.032747
0.033209
0.033567
0.032721
0.032479
0.027267
0.030801
0.023506
0.032351
0.030229
0.034217
0.017569
0.032929
0.034641
0.031327
0.032063
0.031582
0.030753
0.019795
0.031631
0.019733
0.032614
0.032397
0.031340
0.033386
0.033798
0.032857
0.019727
0.025952
0.031557
0.026342
0.029782
0.019813
0.034019
0.019286
0.030027
0.018584
0.030289
0.034026
0.031698
0.034103
0.031104
0.026692
0.018639
0.021647
0.033449
0.032343
0.030935
0.031971
0.034338
0.020008
0.018995
0.020766
0.023885
0.026607
0.032537
0.032635
0.032883
0.022815
0.032050
0.016751
0.032655
0.035095
0.031758
0.032484
0.023765
0.032287
0.032534
0.019433
0.032244
0.035008
0.036030
0.029880
0.024066
0.021784
0.033552
0.033494
0.033305
0.032980
0.015781
0.033278
0.033836
0.032114
0.032650
0.033533
0.034680
0.018024
0.032678
0.031069
0.028504
0.032857
0.033729
0.020261
0.027225
0.033437
0.032144
0.024549
0.033407
0.021124
0.034739
0.031412
